Frequency (Hz);Trace 1: Impedance: Real (Ω);Trace 1: Impedance: Imaginary (Ω);Trace 1: Impedance: Magnitude (Ω);Trace 2: Impedance: Real (Ω);Trace 2: Impedance: Imaginary (Ω);Trace 2: Impedance: Phase (°)
10000;302.2353542797443;599.7047060561491;671.5593375439693;302.2353542797443;599.7047060561491;63.25310094665275
10209.515903;307.1925836825847;608.3897218495756;681.5462839175236;307.1925836825847;608.3897218495756;63.2095431422451
10423.421498;312.1283468640834;617.2979399998299;691.7231033037274;312.1283468640834;617.2979399998299;63.17717531533561
10641.808756;317.18117909941196;626.3209755806809;702.0554570881342;317.18117909941196;626.3209755806809;63.14145508673506
10864.771573;322.31689350634883;635.634448205813;712.6845947440503;322.31689350634883;635.634448205813;63.11139005744731
11092.405816;327.53255097792004;644.9148452168519;723.3206270604895;327.53255097792004;644.9148452168519;63.07537616674571
11324.809359;332.84618795694826;654.4683314968544;734.2447696577406;332.84618795694826;654.4683314968544;63.04325246964497
11562.082126;338.30884559809533;664.1604464027913;745.3602978264075;338.30884559809533;664.1604464027913;63.00669877850039
11804.326134;343.83459034209454;674.118691730742;756.741855626133;343.83459034209454;674.118691730742;62.976121277127916
12051.645539;349.4950271253776;684.1718285716145;768.2693961081588;349.4950271253776;684.1718285716145;62.940722711000845
12304.14668;355.2469935817171;694.451142156927;780.0402651734775;355.2469935817171;694.451142156927;62.90795185044985
12561.938121;361.24529774784116;704.8444554206518;792.025170990267;361.24529774784116;704.8444554206518;62.86405472275516
12825.130702;367.24839429984684;715.6757995146602;804.4024074595773;367.24839429984684;715.6757995146602;62.83541369169948
13093.837587;373.3461056637901;726.4387189201805;816.7622218006356;373.3461056637901;726.4387189201805;62.799543553727396
13368.174308;379.694841963355;737.6424369720895;829.6291568138744;379.694841963355;737.6424369720895;62.76326040836755
13648.25882;386.18492387689014;748.9801296253013;842.6802655831763;386.18492387689014;748.9801296253013;62.723717379582546
13934.211547;392.6512960225419;760.3965017604402;855.7907922837782;392.6512960225419;760.3965017604402;62.689208131625094
14226.15544;399.39804784461995;772.2081235249417;869.3814966169944;399.39804784461995;772.2081235249417;62.65129186543009
14524.216021;406.177630155355;784.1830411272861;883.1326679668571;406.177630155355;784.1830411272861;62.617524659317084
14828.521445;413.26904384124913;796.3685658261061;897.2146873705252;413.26904384124913;796.3685658261061;62.57330842431321
15139.202552;420.5329497414867;808.8889996963984;911.6739415208245;420.5329497414867;808.8889996963984;62.53054930640459
15456.392922;428.029074441311;821.5260138603246;926.344363623118;428.029074441311;821.5260138603246;62.4797171449713
15780.228934;435.5512875753513;834.5809083503897;941.3980118374524;435.5512875753513;834.5809083503897;62.44083357800189
16110.849827;443.4506511469745;847.6512805544154;956.6405664763627;443.4506511469745;847.6512805544154;62.38358480138299
16448.397752;451.41293219910716;860.992603809021;972.1532282363895;451.41293219910716;860.992603809021;62.332263907777765
16793.017844;459.5874961542881;874.7384935314567;988.1235240024652;459.5874961542881;874.7384935314567;62.28256937182361
17144.858275;467.9905427161438;888.7425798382095;1004.4294506281798;467.9905427161438;888.7425798382095;62.22978422094388
17504.070322;476.55396294635295;902.9985290230832;1021.0338011142069;476.55396294635295;902.9985290230832;62.177322670818604
17870.808433;485.43234249010345;917.540079794517;1038.0387069684625;485.43234249010345;917.540079794517;62.11854255738423
18245.23029;494.6573446493553;932.3263091762116;1055.423249411196;494.6573446493553;932.3263091762116;62.05125659449158
18627.496881;504.0260731698123;947.6247524727892;1073.3289122790347;504.0260731698123;947.6247524727892;61.99222048762645
19017.772565;513.6948840778449;963.030272677985;1091.4713647283581;513.6948840778449;963.030272677985;61.92386602364631
19416.225145;523.7267966414383;978.7189542768155;1110.0362827317879;523.7267966414383;978.7189542768155;61.84811432479081
19823.02594;534.1141763844066;994.8731873916187;1129.1813903910886;534.1141763844066;994.8731873916187;61.770134776790876
20238.349859;544.6884676408498;1011.1393727612813;1148.5157194958258;544.6884676408498;1011.1393727612813;61.68919421141325
20662.375475;555.6366201814092;1028.1281871452945;1168.6657447231391;555.6366201814092;1028.1281871452945;61.61165343441791
21095.285101;566.9631343901998;1045.0318781891538;1188.92338785521;566.9631343901998;1045.0318781891538;61.518756574067865
21537.264873;578.3394557242373;1062.659842931556;1209.843984911578;578.3394557242373;1062.659842931556;61.44330502300544
21988.504824;590.6703670144327;1080.2739778220284;1231.2121464753313;590.6703670144327;1080.2739778220284;61.33111873865471
22449.198969;603.0915696585604;1098.377014403081;1253.0568650952168;603.0915696585604;1098.377014403081;61.229903614719255
22919.54539;615.7871289102449;1117.628577769455;1276.0436614702874;615.7871289102449;1117.628577769455;61.14626678960118
23399.746316;629.0414023995053;1136.847633821217;1299.275039573083;629.0414023995053;1136.847633821217;61.0433337182379
23890.008215;642.6991182733708;1156.1262036581768;1322.7584645030383;642.6991182733708;1156.1262036581768;60.92999328941778
24390.541881;657.0674436985897;1176.3999644733735;1347.4622451043124;657.0674436985897;1176.3999644733735;60.81485725752847
24901.562522;671.9895085172311;1196.5927073881169;1372.3716723000564;671.9895085172311;1196.5927073881169;60.68205069975737
25423.289859;687.1416861528774;1217.5198144528915;1398.0408418334648;687.1416861528774;1217.5198144528915;60.56056295752397
25955.948214;703.0679448119432;1238.7885082382109;1424.395135896336;703.0679448119432;1238.7885082382109;60.42314907701432
26499.766608;719.4343464298688;1260.5661728487569;1451.4175329496109;719.4343464298688;1260.5661728487569;60.285594970838794
27054.978862;736.9100760819442;1282.8080048268087;1479.4028651719025;736.9100760819442;1282.8080048268087;60.12475222728543
27621.823696;754.261832233067;1305.6678068819388;1507.8724526601961;754.261832233067;1305.6678068819388;59.9857126747589
28200.544831;772.8306900169923;1329.0361211478353;1537.4017974322212;772.8306900169923;1329.0361211478353;59.82212176451723
28791.391094;792.2976696750625;1353.2476796202739;1568.1246378302299;792.2976696750625;1353.2476796202739;59.65193651009512
29394.616526;812.4527077950577;1377.5062099979234;1599.250687349036;812.4527077950577;1377.5062099979234;59.46791015788145
30010.48049;839.4886149695897;1400.461833209146;1632.7995838249967;839.4886149695897;1400.461833209146;59.05996887764806
30639.247783;861.7216862258703;1425.7629543881699;1665.942455974287;861.7216862258703;1425.7629543881699;58.851512505557146
31281.188751;883.5234898999289;1451.5288326714096;1699.2791734383657;883.5234898999289;1451.5288326714096;58.67176218470089
31936.579403;909.2427859006656;1478.173770266117;1735.4308222499537;909.2427859006656;1478.173770266117;58.40381827847939
32605.701532;933.929934784212;1506.3474376667345;1772.3734725083139;933.929934784212;1506.3474376667345;58.20123764406043
33288.842834;962.0208463416288;1534.4352273991242;1811.0702846326162;962.0208463416288;1534.4352273991242;57.91416528422274
33986.297032;989.6854643403252;1563.3885255131543;1850.3137571862562;989.6854643403252;1563.3885255131543;57.66460593372003
34698.364005;1018.7100831819122;1593.6661718518642;1891.4391612953016;1018.7100831819122;1593.6661718518642;57.412299314633735
35425.349913;1047.898401763823;1622.0056249659624;1931.0601512745263;1047.898401763823;1622.0056249659624;57.13547715068272
36167.567333;1083.8787919895578;1652.8905531914759;1976.5728968480687;1083.8787919895578;1652.8905531914759;56.74524232391839
36925.335387;1116.7364329477043;1683.7191102663344;2020.3985505213614;1116.7364329477043;1683.7191102663344;56.445442806201775
37698.979888;1151.4797784752107;1716.47895119266;2066.931462367529;1151.4797784752107;1716.47895119266;56.14477861282747
38488.833471;1189.6628278362016;1749.6195013116017;2115.766065354364;1189.6628278362016;1749.6195013116017;55.7860542578674
39295.235743;1224.0835387982565;1781.9321427626935;2161.8655534902505;1224.0835387982565;1781.9321427626935;55.5132031800413
40118.533425;1272.577864474693;1818.836594580551;2219.8245378714832;1272.577864474693;1818.836594580551;55.02083080544978
40959.080503;1314.1505259041496;1853.1540159128817;2271.821166251471;1314.1505259041496;1853.1540159128817;54.65792095439242
41817.238378;1362.9993203933927;1889.6342587272277;2329.9108951091775;1362.9993203933927;1889.6342587272277;54.196966121216946
42693.376026;1414.6214336605199;1922.5647857979538;2386.9246230583144;1414.6214336605199;1922.5647857979538;53.654398801155125
43587.870151;1470.7300565925927;1960.9994355136319;2451.2375824162036;1470.7300565925927;1960.9994355136319;53.13046736685543
44501.105351;1527.0915106569507;1998.0603820962906;2514.806905594007;1527.0915106569507;1998.0603820962906;52.609791824433806
45433.47428;1590.7465295226796;2037.3231402574409;2584.794014813732;1590.7465295226796;2037.3231402574409;52.017201158758155
46385.377822;1653.9092422932083;2076.7772577138453;2654.8859787004667;1653.9092422932083;2076.7772577138453;51.46679456190097
47357.225256;1724.8386292961916;2114.888564051229;2729.069793073646;1724.8386292961916;2114.888564051229;50.800364354762266
48349.43444;1799.8918972177366;2154.3397526114245;2807.2745878078827;1799.8918972177366;2154.3397526114245;50.1221670328814
49362.431984;1886.533817066101;2186.7942224619846;2888.092591023894;1886.533817066101;2186.7942224619846;49.21586355426677
50396.653437;1969.6276018783606;2226.493139369273;2972.6595145996025;1969.6276018783606;2226.493139369273;48.5029900356376
51452.543475;2058.873069152733;2259.596883767674;3056.9161571778473;2058.873069152733;2259.596883767674;47.66121015344968
52530.556088;2160.0692839341964;2296.0088491322695;3152.3889269393267;2160.0692839341964;2296.0088491322695;46.74735457222717
53631.15478;2265.969895668338;2325.1856004687093;3246.707200334242;2265.969895668338;2325.1856004687093;45.73894727661496
54754.812765;2382.4786907348944;2351.18394349337;3347.278095400334;2382.4786907348944;2351.18394349337;44.62121702490916
55902.013172;2504.8754955866802;2380.223349087729;3455.410893068004;2504.8754955866802;2380.223349087729;43.53831157679053
57073.249251;2634.8610299025013;2395.432478743749;3560.981522996053;2634.8610299025013;2395.432478743749;42.27493039470646
58269.024589;2771.9223474926225;2410.130787599921;3673.1844377686816;2771.9223474926225;2410.130787599921;41.006303486797364
59489.853323;2925.282188701517;2452.449208493293;3817.300486439824;2925.282188701517;2452.449208493293;39.9752334572403
60736.260359;3116.077340421746;2411.862241614988;3940.43366446105;3116.077340421746;2411.862241614988;37.74008243623833
62008.781606;3240.4889405928366;2399.33241000564;4032.067036621286;3240.4889405928366;2399.33241000564;36.51709688750116
63307.964196;3430.3645640087425;2379.5435804140943;4174.880680102944;3430.3645640087425;2379.5435804140943;34.74791396967219
64634.366728;3630.1747593970144;2335.3890666111233;4316.5044742488035;3630.1747593970144;2335.3890666111233;32.75426673631933
65988.559502;3819.606468084685;2277.430470777173;4447.030820700335;3819.606468084685;2277.430470777173;30.805401044499725
67371.124768;4015.455838189667;2196.448005198676;4576.927946558993;4015.455838189667;2196.448005198676;28.67858973176352
68782.656976;4222.745936251514;2096.4756683337628;4714.530037028524;4222.745936251514;2096.4756683337628;26.403117434020203
70223.763028;4434.251921577141;1957.3909000263036;4847.057792054511;4434.251921577141;1957.3909000263036;23.817875573251808
71695.062543;4627.934884321565;1817.6617608609363;4972.089658324408;4627.934884321565;1817.6617608609363;21.44285070105261
73197.188124;4842.985967988467;1626.9867290550233;5108.972392042684;4842.985967988467;1626.9867290550233;18.569621139008014
74730.785624;5026.464275284119;1412.4781175679188;5221.1528940757635;5026.464275284119;1412.4781175679188;15.695803091461018
76296.514431;5187.460710657894;1160.3404875940312;5315.650352663281;5187.460710657894;1160.3404875940312;12.608474613555396
77895.047746;5331.342827590583;873.3322956505987;5402.399989257357;5331.342827590583;873.3322956505987;9.303050129914979
79527.072877;5423.908104860506;591.4178722574802;5456.056655643987;5423.908104860506;591.4178722574802;6.222893575715843
81193.291529;5509.8453440459925;274.43342842595644;5516.675577006765;5509.8453440459925;274.43342842595644;2.8514219263425455
82894.420112;5530.216553806262;-53.97239894159057;5530.479920571117;5530.216553806262;-53.97239894159057;-0.5591630025668716
84631.190045;5511.195544228793;-379.76196777151534;5524.264247743132;5511.195544228793;-379.76196777151534;-3.9418701598706707
86404.348069;5448.05892720527;-682.6738353793373;5490.663861484563;5448.05892720527;-682.6738353793373;-7.142271884922137
88214.656574;5356.410781586387;-983.6265990425852;5445.976289650826;5356.410781586387;-983.6265990425852;-10.405600879881522
90062.893922;5215.407280755377;-1247.100014665445;5362.437090608592;5215.407280755377;-1247.100014665445;-13.447964575358373
91949.854781;5067.960936936848;-1488.9756025167085;5282.165881833683;5067.960936936848;-1488.9756025167085;-16.372878415947596
93876.350471;4905.477830432847;-1705.765143923606;5193.58714869529;4905.477830432847;-1705.765143923606;-19.17392305558848
95843.209309;4709.020544782372;-1903.0615621379611;5079.027249431671;4709.020544782372;-1903.0615621379611;-22.005164489712072
97851.276968;4557.939304075246;-2059.071342032315;5001.458336446751;4557.939304075246;-2059.071342032315;-24.31130572836041
99901.416839;4360.96232730252;-2214.6595932397972;4891.084699131765;4360.96232730252;-2214.6595932397972;-26.923161940219458
101994.510399;4188.389412478213;-2338.9788522918466;4797.231278771961;4188.389412478213;-2338.9788522918466;-29.180890948901986
104131.457599;4005.3152377749498;-2441.024579802847;4690.538471556743;4005.3152377749498;-2441.024579802847;-31.36006440035428
106313.177241;3823.7895202924683;-2543.7204611984243;4592.589692125569;3823.7895202924683;-2543.7204611984243;-33.63326017230377
108540.607379;3653.7508823019543;-2621.4094480206113;4496.852566417319;3653.7508823019543;-2621.4094480206113;-35.65781625661605
110814.705721;3479.8645302609225;-2696.8608252025488;4402.557831474817;3479.8645302609225;-2696.8608252025488;-37.7753326500832
113136.45004;3299.617880758975;-2759.749167949753;4301.591987744038;3299.617880758975;-2759.749167949753;-39.908587396407704
115506.838595;3128.4538355746568;-2799.782834264413;4198.333874331989;3128.4538355746568;-2799.782834264413;-41.8266782796676
117926.89056;2947.9338126659045;-2838.853563289822;4092.6034889373605;2947.9338126659045;-2838.853563289822;-43.920109303720324
120397.646462;2783.661537348364;-2859.868996040977;3990.94252389446;2783.661537348364;-2859.868996040977;-45.77364698553854
122920.168629;2609.4942662653984;-2871.3223844521376;3879.9423399230946;2609.4942662653984;-2871.3223844521376;-47.735039455005904
125495.541648;2447.0777505049987;-2866.2121472716926;3768.73474659393;2447.0777505049987;-2866.2121472716926;-49.5103891503877
128124.872827;2292.0519457565106;-2850.2621130784964;3657.525971923768;2292.0519457565106;-2850.2621130784964;-51.19533184904476
130809.292676;2142.406131224701;-2824.9459384004053;3545.4511117760653;2142.406131224701;-2824.9459384004053;-52.823743353469254
133549.95539;1999.4084091302645;-2794.514582482952;3436.123650017659;1999.4084091302645;-2794.514582482952;-54.41718527748262
136348.039347;1866.101175981204;-2754.5845677458;3327.171432292263;1866.101175981204;-2754.5845677458;-55.88421146523831
139204.747612;1750.247990318451;-2702.927727610997;3220.1220983531234;1750.247990318451;-2702.927727610997;-57.075415368858025
142121.308459;1638.7069441163353;-2654.7750866326583;3119.8062775275866;1638.7069441163353;-2654.7750866326583;-58.31430600747835
145098.975893;1533.5729739416524;-2601.589856590809;3019.9529546535045;1533.5729739416524;-2601.589856590809;-59.48170040824943
148139.030196;1440.8209188409419;-2546.09072335815;2925.498742392497;1440.8209188409419;-2546.09072335815;-60.49468003512285
151242.778471;1356.1278921425999;-2487.31207907902;2832.985040302812;1356.1278921425999;-2487.31207907902;-61.39997651140167
154411.555209;1277.8923564557504;-2432.4190003332574;2747.6664768254304;1277.8923564557504;-2432.4190003332574;-62.28442060764174
157646.722859;1208.0866729527422;-2376.6284864374866;2666.0525823607013;1208.0866729527422;-2376.6284864374866;-63.0548800917099
160949.672416;1143.5983373270287;-2324.150461984097;2590.268813671283;1143.5983373270287;-2324.150461984097;-63.800505478205174
164321.824019;1083.7423527029343;-2272.4190392896294;2517.615097104419;1083.7423527029343;-2272.4190392896294;-64.50299752889762
167764.627562;1030.7451179222517;-2221.969037746779;2449.404397568091;1030.7451179222517;-2221.969037746779;-65.11397308125846
171279.563313;979.1896353233753;-2172.9961547672815;2383.427076828262;979.1896353233753;-2172.9961547672815;-65.74284939455
174868.142559;930.5780029013575;-2130.1662287965073;2324.560943874996;930.5780029013575;-2130.1662287965073;-66.40155257940059
178531.908247;885.5470462369278;-2085.2746018456874;2265.516218481262;885.5470462369278;-2085.2746018456874;-66.99067655673798
182272.435653;841.0217609410404;-2043.9036306435746;2210.1718606783397;841.0217609410404;-2043.9036306435746;-67.6339027910245
186091.333056;797.1626794473757;-2006.2655385780774;2158.835275973992;797.1626794473757;-2006.2655385780774;-68.33026549103829
189990.242434;755.767747130876;-1967.6224608812229;2107.7767994186574;755.767747130876;-1967.6224608812229;-68.98811696381853
193970.840164;712.7981181958385;-1930.2770085520458;2057.680851601667;712.7981181958385;-1930.2770085520458;-69.73220099195636
198034.837746;671.9606057266575;-1888.6360871910415;2004.614009102207;671.9606057266575;-1888.6360871910415;-70.41487529170102
202183.982541;634.8029024353896;-1849.9261901583395;1955.8122696143778;634.8029024353896;-1849.9261901583395;-71.06032219008877
206420.058519;598.81269013373;-1811.7051092504018;1908.101685117752;598.81269013373;-1811.7051092504018;-71.7100205937623
210744.887025;562.3123982654678;-1772.0230776695912;1859.1022083351609;562.3123982654678;-1772.0230776695912;-72.39431369853529
215160.327566;530.800280382424;-1730.2837015099853;1809.870333854101;530.800280382424;-1730.2837015099853;-72.94552277149798
219668.278608;499.7070104354413;-1692.4706555730618;1764.6994124366438;499.7070104354413;-1692.4706555730618;-73.55060723859073
224270.678394;470.01848945370074;-1654.4668394443008;1719.9354357792483;470.01848945370074;-1654.4668394443008;-74.14064972450025
228969.505775;441.5658775131909;-1615.0591429300475;1674.3346318301888;441.5658775131909;-1615.0591429300475;-74.70872402088287
233766.781062;415.75426051644837;-1578.43620374562;1632.27217535326;415.75426051644837;-1578.43620374562;-75.24366282967871
238664.566896;391.4999307834537;-1538.6878094231095;1587.712937111346;391.4999307834537;-1538.6878094231095;-75.72471157853435
243664.969133;369.4281277517886;-1502.4365171892541;1547.1886212605002;369.4281277517886;-1502.4365171892541;-76.18581883517614
248770.137748;348.66916728852516;-1464.9423995124555;1505.8640118241037;348.66916728852516;-1464.9423995124555;-76.61218974736609
253982.267765;329.5452744710716;-1428.686695587384;1466.201132885462;329.5452744710716;-1428.686695587384;-77.0111577823132
259303.600195;312.20904930688374;-1393.9549817042366;1428.4904555114;312.20904930688374;-1393.9549817042366;-77.37560605776574
