Frequency (Hz);Trace 1: Impedance: Real (Ω);Trace 1: Impedance: Imaginary (Ω);Trace 1: Impedance: Magnitude (Ω);Trace 2: Impedance: Real (Ω);Trace 2: Impedance: Imaginary (Ω);Trace 2: Impedance: Phase (°)
10000;586.2205141410417;1076.1745467140836;1225.4820056594265;586.2205141410417;1076.1745467140836;61.42171062627068
10209.515903;595.4606390885907;1091.8588654534092;1243.675663013874;595.4606390885907;1091.8588654534092;61.39353389734411
10423.421498;604.7537563846031;1108.0719907332427;1262.359157493944;604.7537563846031;1108.0719907332427;61.37556034121219
10641.808756;614.3463409988619;1124.3657634725125;1281.2571157920709;614.3463409988619;1124.3657634725125;61.348086745725716
10864.771573;624.0193861744393;1141.3162802559928;1300.7701741271976;624.0193861744393;1141.3162802559928;61.33218491420156
11092.405816;634.1320506183487;1158.2043171565895;1320.4395851009594;634.1320506183487;1158.2043171565895;61.29871702159222
11324.809359;644.0784946338697;1175.9561552091363;1340.7870771394264;644.0784946338697;1175.9561552091363;61.29020548095825
11562.082126;654.3632984546268;1193.3941060739814;1361.0219758609837;654.3632984546268;1193.3941060739814;61.26310710138431
11804.326134;665.1138870691711;1211.9858644831272;1382.4927553080252;665.1138870691711;1211.9858644831272;61.24289025146624
12051.645539;676.0206627924155;1230.5961051467093;1404.0550952596366;676.0206627924155;1230.5961051467093;61.21806836975428
12304.14668;687.2229552728286;1249.4838052407679;1426.003215218279;687.2229552728286;1249.4838052407679;61.18896466161446
12561.938121;698.7412742905309;1269.024754116577;1448.6763596324038;698.7412742905309;1269.024754116577;61.162256682946015
12825.130702;710.1232673994357;1288.490478703097;1471.2181240763;710.1232673994357;1288.490478703097;61.13960724574575
13093.837587;722.0675810309934;1308.9141681841866;1494.8705265839085;722.0675810309934;1308.9141681841866;61.11650435352768
13368.174308;734.7687623706055;1329.3257636455428;1518.8785731741157;734.7687623706055;1329.3257636455428;61.0689067700321
13648.25882;747.300875383668;1350.7615852894473;1543.7018684457364;747.300875383668;1350.7615852894473;61.04669686018432
13934.211547;760.4393344523135;1372.6991193087165;1569.258058297998;760.4393344523135;1372.6991193087165;61.01469622362826
14226.15544;774.0770012597145;1394.6285228814004;1595.0498176275212;774.0770012597145;1394.6285228814004;60.9678982805232
14524.216021;787.3932987861539;1417.0148804790947;1621.0858640036697;787.3932987861539;1417.0148804790947;60.94036568898787
14828.521445;801.6932949312551;1440.0890527397;1648.201631766714;801.6932949312551;1440.0890527397;60.8954434849225
15139.202552;816.3923521835047;1463.771180643492;1676.043717206135;816.3923521835047;1463.771180643492;60.8501838283269
15456.392922;831.6209613995901;1487.32328441584;1704.0316827467439;831.6209613995901;1487.32328441584;60.78872711151829
15780.228934;846.7033345667389;1512.1790399813785;1733.0874143347298;846.7033345667389;1512.1790399813785;60.7545464468991
16110.849827;862.6678730110582;1537.4331173118285;1762.922700895473;862.6678730110582;1537.4331173118285;60.70281596834822
16448.397752;879.4417441597595;1562.8788220535978;1793.323170483893;879.4417441597595;1562.8788220535978;60.633268588737074
16793.017844;896.2242568143504;1589.642287272185;1824.878220590727;896.2242568143504;1589.642287272185;60.58613554709119
17144.858275;914.3041331071468;1616.4390036344867;1857.1018012719883;914.3041331071468;1616.4390036344867;60.506258034170955
17504.070322;932.3846393987455;1643.5599783714824;1889.6112082360212;932.3846393987455;1643.5599783714824;60.43394085664898
17870.808433;951.2699451907949;1671.6188073257056;1923.3366698600412;951.2699451907949;1671.6188073257056;60.35704670476762
18245.23029;970.4600812055647;1700.4214235732195;1957.8625556867585;970.4600812055647;1700.4214235732195;60.285845493155996
18627.496881;990.6509366077969;1729.3439507822704;1992.9926689050158;990.6509366077969;1729.3439507822704;60.19385510028976
19017.772565;1011.9767712336271;1759.5612353330594;2029.8159341189632;1011.9767712336271;1759.5612353330594;60.09549298696355
19416.225145;1032.9891432255013;1790.383687248024;2067.0124135054402;1032.9891432255013;1790.383687248024;60.01654842317029
19823.02594;1055.68082153837;1821.8863837978422;2105.64289290276;1055.68082153837;1821.8863837978422;59.91011746607846
20238.349859;1079.781226719424;1854.6664047229294;2146.0929547397477;1079.781226719424;1854.6664047229294;59.792163954632734
20662.375475;1103.7746701336314;1887.3299968565664;2186.3972739333567;1103.7746701336314;1887.3299968565664;59.679454300781664
21095.285101;1129.8336035186285;1921.787304960564;2229.302675086422;1129.8336035186285;1921.787304960564;59.548400616661574
21537.264873;1155.9893931942474;1955.2975220341668;2271.4532521825226;1155.9893931942474;1955.2975220341668;59.40804062706226
21988.504824;1183.9742301266594;1991.3755123678775;2316.758815427804;1183.9742301266594;1991.3755123678775;59.26635923602635
22449.198969;1211.5003919626613;2028.1362205628034;2362.4287775263097;1211.5003919626613;2028.1362205628034;59.14815766741061
22919.54539;1242.2752075171609;2067.024982049006;2411.6052677887606;1242.2752075171609;2067.024982049006;58.9942714131344
23399.746316;1272.9438706694468;2105.1676921652293;2460.105101415627;1272.9438706694468;2105.1676921652293;58.839663562789156
23890.008215;1305.3152722993118;2144.464306940556;2510.493004140794;1305.3152722993118;2144.464306940556;58.67151821543623
24390.541881;1340.201225721888;2185.202271046686;2563.4446143449336;1340.201225721888;2185.202271046686;58.47889290186041
24901.562522;1376.4893963974364;2225.829071406719;2617.06670024168;1376.4893963974364;2225.829071406719;58.266670044783474
25423.289859;1413.9899076636652;2268.936647574361;2673.469837062068;1413.9899076636652;2268.936647574361;58.06904697190457
25955.948214;1453.6830751520413;2312.63498448393;2731.57007130377;1453.6830751520413;2312.63498448393;57.84722894417152
26499.766608;1494.651117504903;2356.092301868921;2790.188685014805;1494.651117504903;2356.092301868921;57.60989177379003
27054.978862;1537.6522492494087;2403.776360174755;2853.509283208443;1537.6522492494087;2403.776360174755;57.39368821642585
27621.823696;1583.8635597426594;2451.0248707633245;2918.2437686014273;1583.8635597426594;2451.0248707633245;57.12926942636797
28200.544831;1632.816337760447;2498.7495955870004;2984.935298177104;1632.816337760447;2498.7495955870004;56.837256337788176
28791.391094;1685.0074263425677;2548.8336799586195;3055.454656008006;1685.0074263425677;2548.8336799586195;56.53172409774337
29394.616526;1738.9334332341207;2600.059461786915;3127.970378703588;1738.9334332341207;2600.059461786915;56.22518624980316
30010.48049;1815.326029993277;2643.7435263383213;3206.9905563046073;1815.326029993277;2643.7435263383213;55.52456740179696
30639.247783;1874.8802722488135;2690.6218222900134;3279.424008244591;1874.8802722488135;2690.6218222900134;55.13042801154969
31281.188751;1941.4849032518498;2745.991464590937;3363.0094786011423;1941.4849032518498;2745.991464590937;54.73873024247034
31936.579403;2009.7280965033685;2803.433218929753;3449.3832542751593;2009.7280965033685;2803.433218929753;54.36397904678939
32605.701532;2090.139987187665;2855.6367026621974;3538.8340090533043;2090.139987187665;2855.6367026621974;53.79830330432424
33288.842834;2162.695379325972;2915.6223785355937;3630.165995925732;2162.695379325972;2915.6223785355937;53.43341223696643
33986.297032;2245.180858796162;2975.1433813172102;3727.239625795513;2245.180858796162;2975.1433813172102;52.960106475746805
34698.364005;2336.2232074185513;3029.784041128761;3825.902535449583;2336.2232074185513;3029.784041128761;52.36469658027877
35425.349913;2434.8080189850866;3091.633499822243;3935.2875100222614;2434.8080189850866;3091.633499822243;51.777890633074186
36167.567333;2545.064623982041;3151.6030799138966;4050.9203785766526;2545.064623982041;3151.6030799138966;51.07752818965034
36925.335387;2648.3717739767785;3216.2801852570888;4166.333073972157;2648.3717739767785;3216.2801852570888;50.53103859367562
37698.979888;2764.7967816828177;3274.03337539479;4285.25329323748;2764.7967816828177;3274.03337539479;49.82017882484601
38488.833471;2882.514392359398;3338.0470993022377;4410.379536878788;2882.514392359398;3338.0470993022377;49.18830290927168
39295.235743;2998.5852432436773;3395.9638374176775;4530.351404256335;2998.5852432436773;3395.9638374176775;48.55597793699834
40118.533425;3165.9331237966276;3448.0543975030905;4681.048138237105;3165.9331237966276;3448.0543975030905;47.44248502258388
40959.080503;3316.4661213151508;3518.2504535611038;4834.980226207143;3316.4661213151508;3518.2504535611038;46.69107718520735
41817.238378;3487.023476008879;3555.255931012806;4979.877253230122;3487.023476008879;3555.255931012806;45.5551198900656
42693.376026;3674.9142505205323;3605.5150651555805;5148.274821116558;3674.9142505205323;3605.5150651555805;44.453856383623936
43587.870151;3867.6118404906438;3656.873891307489;5322.701194471639;3867.6118404906438;3656.873891307489;43.39573892801378
44501.105351;4086.275269649517;3676.4302695302117;5496.706750961635;4086.275269649517;3676.4302695302117;41.97777970567197
45433.47428;4318.225918049319;3705.0014279380907;5689.825187150847;4318.225918049319;3705.0014279380907;40.62931525611466
46385.377822;4572.874894557538;3716.7431249326482;5892.8231144340925;4572.874894557538;3716.7431249326482;39.103535096119636
47357.225256;4828.324580924062;3714.3642745939924;6091.733761675379;4828.324580924062;3714.3642745939924;37.57059327815274
48349.43444;5108.435180616556;3691.7988000745954;6302.8159083693;5108.435180616556;3691.7988000745954;35.85514362682181
49362.431984;5414.752775268306;3635.8025478031263;6522.162814886449;5414.752775268306;3635.8025478031263;33.87987322136065
50396.653437;5714.907288375042;3575.5310213540197;6741.26007504436;5714.907288375042;3575.5310213540197;32.032151119543904
51452.543475;6054.609713805056;3444.1055928808655;6965.641544137611;6054.609713805056;3444.1055928808655;29.632960558088
52530.556088;6393.534531310592;3305.5233997563496;7197.48350115495;6393.534531310592;3305.5233997563496;27.339430826878274
53631.15478;6736.9538706248895;3074.5241547672804;7405.352539425462;6736.9538706248895;3074.5241547672804;24.53039635216851
54754.812765;7085.092519921003;2819.1079864202784;7625.346277706944;7085.092519921003;2819.1079864202784;21.69725795700078
55902.013172;7399.369566445297;2556.335671001912;7828.507012430509;7399.369566445297;2556.335671001912;19.05901763686201
57073.249251;7649.67408525396;2202.314139326751;7960.383230654446;7649.67408525396;2202.314139326751;16.060922695513288
58269.024589;7903.760456345351;1819.8012594459847;8110.555219907555;7903.760456345351;1819.8012594459847;12.966095532581665
59489.853323;8299.728249631304;1456.5057374185956;8426.559083093241;8299.728249631304;1456.5057374185956;9.95339302399146
60736.260359;8328.486261403395;766.0181066448213;8363.639587290501;8328.486261403395;766.0181066448213;5.255032650093743
62008.781606;8353.22611973247;445.272676466507;8365.085436729767;8353.22611973247;445.272676466507;3.0512908089810566
63307.964196;8431.932957731908;-48.4009585829228;8432.071872112885;8431.932957731908;-48.4009585829228;-0.32888546519046763
64634.366728;8391.940859145843;-529.1841995651986;8408.60911806887;8391.940859145843;-529.1841995651986;-3.608215223214181
65988.559502;8341.167605952365;-979.4650441769595;8398.477767033362;8341.167605952365;-979.4650441769595;-6.697310439345263
67371.124768;8201.115824843646;-1395.446389703444;8318.988604333897;8201.115824843646;-1395.446389703444;-9.656578222000116
68782.656976;8075.899536026846;-1797.1688495590668;8273.449654758533;8075.899536026846;-1797.1688495590668;-12.545874263418177
70223.763028;7889.981030953343;-2204.425243532035;8192.148150706556;7889.981030953343;-2204.425243532035;-15.610124442610088
71695.062543;7745.536210913257;-2556.3284786412974;8156.478804317523;7745.536210913257;-2556.3284786412974;-18.26490136270179
73197.188124;7497.349756149622;-2882.738806897301;8032.461415707422;7497.349756149622;-2882.738806897301;-21.03180379289425
74730.785624;7274.719526393594;-3199.227406773251;7947.112695057328;7274.719526393594;-3199.227406773251;-23.738611378520122
76296.514431;7004.267077056944;-3506.5164065228146;7832.969717543755;7004.267077056944;-3506.5164065228146;-26.593725923565707
77895.047746;6729.738247579707;-3808.8678368968863;7732.842367453558;6729.738247579707;-3808.8678368968863;-29.508803491059517
79527.072877;6426.609448019277;-4026.7634251176096;7583.939126815005;6426.609448019277;-4026.7634251176096;-32.07029750306943
81193.291529;6105.338451175822;-4329.58742681508;7484.683352677067;6105.338451175822;-4329.58742681508;-35.342276471714456
82894.420112;5780.793043146009;-4499.0121925908425;7325.208455516223;5780.793043146009;-4499.0121925908425;-37.89251701188818
84631.190045;5435.2036040692055;-4660.127924852736;7159.485351174284;5435.2036040692055;-4660.127924852736;-40.60969177149617
86404.348069;5059.984411455963;-4772.4176881532785;6955.531096499793;5059.984411455963;-4772.4176881532785;-43.32475686218567
88214.656574;4682.611429022335;-4857.525225835505;6747.029058395915;4682.611429022335;-4857.525225835505;-46.0503727530024
90062.893922;4329.794059974925;-4872.421829212616;6518.252149432527;4329.794059974925;-4872.421829212616;-48.37465688165907
91949.854781;3986.0794107073775;-4881.389856507026;6302.1263078166685;3986.0794107073775;-4881.389856507026;-50.76537189538558
93876.350471;3690.4226195719816;-4854.523258095441;6098.0009162378865;3690.4226195719816;-4854.523258095441;-52.757798046158825
95843.209309;3359.0491523595665;-4794.882962254839;5854.409776372787;3359.0491523595665;-4794.882962254839;-54.986884766804934
97851.276968;3099.3937032520635;-4748.1045382158845;5670.162081773749;3099.3937032520635;-4748.1045382158845;-56.86492713160646
99901.416839;2821.460637613521;-4643.74888909214;5433.695232026451;2821.460637613521;-4643.74888909214;-58.717866055924695
101994.510399;2593.3298818665357;-4555.655737478413;5242.07583640316;2593.3298818665357;-4555.655737478413;-60.34908722874381
104131.457599;2372.2663035215987;-4441.821413674966;5035.615641190807;2372.2663035215987;-4441.821413674966;-61.894434061707294
106313.177241;2185.356695119004;-4323.1179877772975;4844.082268205721;2185.356695119004;-4323.1179877772975;-63.18318546577394
108540.607379;2005.9333238984304;-4197.539132641455;4652.2148778815645;2005.9333238984304;-4197.539132641455;-64.4576493401349
110814.705721;1863.6482405411805;-4079.497549143269;4485.028987413368;1863.6482405411805;-4079.497549143269;-65.44752513473016
113136.45004;1711.7347222056712;-3954.881697631683;4309.422815350867;1711.7347222056712;-3954.881697631683;-66.59628344793131
115506.838595;1585.8149773680343;-3834.407757971399;4149.39658225579;1585.8149773680343;-3834.407757971399;-67.53123864024522
117926.89056;1474.365291501451;-3719.9646780537673;4001.4860013189887;1474.365291501451;-3719.9646780537673;-68.37966974874412
120397.646462;1373.3535874432494;-3601.5151109810604;3854.479364423704;1373.3535874432494;-3601.5151109810604;-69.12681937060071
122920.168629;1280.3610492550679;-3490.788822456237;3718.1892124305537;1280.3610492550679;-3490.788822456237;-69.8578350160688
125495.541648;1197.7479500811169;-3383.654389975767;3589.389527862056;1197.7479500811169;-3383.654389975767;-70.50702560992858
128124.872827;1124.068978036984;-3275.7479902870473;3463.243561064503;1124.068978036984;-3275.7479902870473;-71.0604041554205
130809.292676;1061.898132349065;-3176.4875916200035;3349.283664188849;1061.898132349065;-3176.4875916200035;-71.51524539994242
133549.95539;1000.5787740897026;-3082.9394227073253;3241.245650555019;1000.5787740897026;-3082.9394227073253;-72.0189800839191
136348.039347;953.1549995934474;-2989.4515990891123;3137.726137913638;953.1549995934474;-2989.4515990891123;-72.3156685385286
139204.747612;905.9493705270469;-2899.3234421421007;3037.5682188410306;905.9493705270469;-2899.3234421421007;-72.64758139245204
142121.308459;866.4814101781895;-2815.3359053990425;2945.658889690629;866.4814101781895;-2815.3359053990425;-72.8931028192005
145098.975893;828.0606404623546;-2735.2010251466895;2857.7979411159263;828.0606404623546;-2735.2010251466895;-73.15672380862596
148139.030196;795.3515272053597;-2658.046669500317;2774.490250310789;795.3515272053597;-2658.046669500317;-73.34155148810984
151242.778471;768.1757189475474;-2584.3415103840907;2696.0925387447114;768.1757189475474;-2584.3415103840907;-73.44582175811787
154411.555209;741.464004955352;-2520.1015184395637;2626.9146415302166;741.464004955352;-2520.1015184395637;-73.6050678539312
157646.722859;719.230316901053;-2454.1995023724808;2557.4181211125647;719.230316901053;-2454.1995023724808;-73.66619346611373
160949.672416;697.2356720171681;-2396.6266419912463;2495.988149698526;697.2356720171681;-2396.6266419912463;-73.77903057080378
164321.824019;677.3194957236707;-2339.8831706482033;2435.942312857605;677.3194957236707;-2339.8831706482033;-73.85600252289959
167764.627562;659.7191029461935;-2287.6734586432503;2380.898810989854;659.7191029461935;-2287.6734586432503;-73.9135005843318
171279.563313;639.9168103969355;-2240.929382849441;2330.5059586164043;639.9168103969355;-2240.929382849441;-74.0628477348014
174868.142559;622.1063718748638;-2196.924749524377;2283.3078401739995;622.1063718748638;-2196.924749524377;-74.18939226525151
178531.908247;602.5328179806664;-2153.875734913175;2236.565777747548;602.5328179806664;-2153.875734913175;-74.37138038088285
182272.435653;582.1194298040384;-2115.126534931455;2193.7691969135044;582.1194298040384;-2115.126534931455;-74.61217398640265
186091.333056;562.5197417703549;-2074.8958476207986;2149.795627113289;562.5197417703549;-2074.8958476207986;-74.83130003099839
189990.242434;540.8383675132305;-2039.5047706816847;2109.996646776418;540.8383675132305;-2039.5047706816847;-75.14807143638797
193970.840164;515.0211651355864;-2002.1117048003025;2067.2924512598574;515.0211651355864;-2002.1117048003025;-75.57406134265077
198034.837746;491.23117072956023;-1962.345637507272;2022.8960586595042;491.23117072956023;-1962.345637507272;-75.94603980073231
202183.982541;471.8827649418237;-1926.430614277321;1983.3830329701918;471.8827649418237;-1926.430614277321;-76.23630129640026
206420.058519;445.8804250382485;-1890.578000255321;1942.4455020622065;445.8804250382485;-1890.578000255321;-76.72966080591752
210744.887025;422.83674700260116;-1851.9044460661773;1899.5633687706804;422.83674700260116;-1851.9044460661773;-77.13839790295634
215160.327566;402.22929602221825;-1812.8524866575387;1856.9390256438014;402.22929602221825;-1812.8524866575387;-77.49007200573242
219668.278608;379.89031344956175;-1776.9746886912567;1817.1284199258444;379.89031344956175;-1776.9746886912567;-77.93268183637682
224270.678394;360.73437155323586;-1740.164451979244;1777.1611088340105;360.73437155323586;-1740.164451979244;-78.28851987875976
228969.505775;341.5292385428533;-1701.7708208656875;1735.7033581604712;341.5292385428533;-1701.7708208656875;-78.65203143788054
233766.781062;320.9421582390297;-1665.48121601615;1696.1225043721815;320.9421582390297;-1665.48121601615;-79.09266828391165
238664.566896;305.0669144618142;-1627.6769725803001;1656.0187647993073;305.0669144618142;-1627.6769725803001;-79.3845110566518
243664.969133;288.86779994331863;-1591.0600480605951;1617.0704011819266;288.86779994331863;-1591.0600480605951;-79.7096500271487
248770.137748;274.66005547102674;-1555.9480715019806;1580.0039706538969;274.66005547102674;-1555.9480715019806;-79.98912815635985
253982.267765;260.74782386712997;-1520.3650819650281;1542.5626114067366;260.74782386712997;-1520.3650819650281;-80.2682549613763
