Frequency (Hz);Trace 1: Impedance: Real (Ω);Trace 1: Impedance: Imaginary (Ω);Trace 1: Impedance: Magnitude (Ω);Trace 2: Impedance: Real (Ω);Trace 2: Impedance: Imaginary (Ω);Trace 2: Impedance: Phase (°)
10000;426.7504355045876;766.3737932165168;877.1799844572535;426.7504355045876;766.3737932165168;60.88902743524562
10209.515903;433.3522227279701;777.3228255737026;889.9578215292886;433.3522227279701;777.3228255737026;60.86062866082386
10423.421498;439.9691782993857;788.4813977110592;902.9262386207537;439.9691782993857;788.4813977110592;60.83867349018448
10641.808756;446.76185642851067;799.8921770915165;916.2006610626601;446.76185642851067;799.8921770915165;60.81543627408536
10864.771573;453.6689938442478;811.5530653292465;929.7493930199407;453.6689938442478;811.5530653292465;60.79422705435267
11092.405816;460.66735210951106;823.344352525567;943.456587308252;460.66735210951106;823.344352525567;60.77265910439947
11324.809359;467.9122508521796;835.336260651492;957.459420997449;467.9122508521796;835.336260651492;60.744702247670546
11562.082126;475.3779457429661;847.9086340591322;972.0767680645524;475.3779457429661;847.9086340591322;60.72293459287725
11804.326134;482.7747455960152;860.4141535436739;986.6022352516612;482.7747455960152;860.4141535436739;60.70340120125293
12051.645539;490.6455888769674;873.148175083271;1001.5591992167375;490.6455888769674;873.148175083271;60.6671893311594
12304.14668;498.40060292578363;886.2312780504368;1016.7640036860545;498.40060292578363;886.2312780504368;60.647378453040545
12561.938121;506.7332324454815;899.6755451984106;1032.5670222763767;506.7332324454815;899.6755451984106;60.61004963859776
12825.130702;514.726961544936;913.5121302687564;1048.5457820664978;514.726961544936;913.5121302687564;60.60050795493474
13093.837587;523.2656154327061;927.3002052806772;1064.750005873564;523.2656154327061;927.3002052806772;60.56442632514749
13368.174308;531.9142196042366;941.3652793637503;1081.2498907323763;531.9142196042366;941.3652793637503;60.5315754207768
13648.25882;540.8372644532882;956.0138274983002;1098.3930921984468;540.8372644532882;956.0138274983002;60.5022398258418
13934.211547;550.0251952369737;970.9539379491035;1115.9208148494868;550.0251952369737;970.9539379491035;60.46934936848675
14226.15544;559.494170811621;986.1402520962664;1133.8017128125496;559.494170811621;986.1402520962664;60.43126108476816
14524.216021;569.1419877484581;1001.6576287541214;1152.059289906381;569.1419877484581;1001.6576287541214;60.39475642828916
14828.521445;578.9690268783869;1017.2777553485048;1170.4952650956768;578.9690268783869;1017.2777553485048;60.354253259068386
15139.202552;589.0869041671185;1033.4890343080444;1189.5894101311485;589.0869041671185;1033.4890343080444;60.31693703945387
15456.392922;599.7054126960697;1049.9872338192456;1209.1814475918636;599.7054126960697;1049.9872338192456;60.26693813417453
15780.228934;610.454218412109;1066.6190358562305;1228.9550522407294;610.454218412109;1066.6190358562305;60.2163550961416
16110.849827;621.6147154646546;1083.8428839553053;1249.4479787421153;621.6147154646546;1083.8428839553053;60.16450291479939
16448.397752;633.2783447472433;1101.597279551007;1270.6525993519977;633.2783447472433;1101.597279551007;60.10657434728991
16793.017844;645.0787786200452;1119.4515456741683;1292.0133102016455;645.0787786200452;1119.4515456741683;60.04750193509063
17144.858275;657.014978678534;1137.9077815272947;1313.9645358487892;657.014978678534;1137.9077815272947;59.99835296617699
17504.070322;669.5163889473278;1156.6469288468622;1336.4446539531473;669.5163889473278;1156.6469288468622;59.935917945112394
17870.808433;682.7573291488375;1175.6918924543893;1359.5620605509102;682.7573291488375;1175.6918924543893;59.855060343282254
18245.23029;695.850525281094;1195.1772986245153;1382.9883328073915;695.850525281094;1195.1772986245153;59.791380539141464
18627.496881;709.6778475508852;1215.298373825658;1407.3353490649436;709.6778475508852;1215.298373825658;59.71705455584034
19017.772565;724.2249062506801;1235.8565635715813;1432.4256213000258;724.2249062506801;1235.8565635715813;59.629250067769306
19416.225145;739.1455383658548;1256.6876938776616;1457.9437872667465;739.1455383658548;1256.6876938776616;59.537250188890916
19823.02594;754.5277198523686;1278.2606361093588;1484.3390225458324;754.5277198523686;1278.2606361093588;59.44762820587499
20238.349859;770.3592074108213;1300.4167663591766;1511.468515937625;770.3592074108213;1300.4167663591766;59.35775020165206
20662.375475;787.2201764772312;1322.6918218663056;1539.230087376429;787.2201764772312;1322.6918218663056;59.240363412057754
21095.285101;804.2443959119333;1345.7835128087756;1567.78260983584;804.2443959119333;1345.7835128087756;59.137329958644365
21537.264873;822.5127073340977;1368.875498907918;1596.9806777905824;822.5127073340977;1368.875498907918;58.999713144879806
21988.504824;841.2054393795819;1393.1290994077244;1627.4013883668567;841.2054393795819;1393.1290994077244;58.87539325844128
22449.198969;860.3712977962141;1417.9881048642847;1658.5924862991956;860.3712977962141;1417.9881048642847;58.75251049373095
22919.54539;880.3541977235612;1444.1389753717954;1691.319276079296;880.3541977235612;1444.1389753717954;58.63331026080132
23399.746316;901.4632170470796;1469.956068430411;1724.3569163036582;901.4632170470796;1469.956068430411;58.480933837913554
23890.008215;923.1829537710543;1496.8810502004728;1758.669850933574;923.1829537710543;1496.8810502004728;58.33630099862231
24390.541881;946.7228307650042;1523.851953266453;1793.9924452922555;946.7228307650042;1523.851953266453;58.14857416686223
24901.562522;970.6429331424646;1552.0471740006005;1830.573170890106;970.6429331424646;1552.0471740006005;57.97833473497018
25423.289859;995.462033860217;1580.397921447469;1867.780032812376;995.462033860217;1580.397921447469;57.793968783196064
25955.948214;1022.0085900667364;1609.887390551901;1906.8924900025715;1022.0085900667364;1609.887390551901;57.59129872497788
26499.766608;1049.2445198521964;1640.923887486071;1947.7025612146906;1049.2445198521964;1640.923887486071;57.404215183545084
27054.978862;1078.106429808018;1671.1929424710409;1988.7682934314914;1078.106429808018;1671.1929424710409;57.17345700619728
27621.823696;1108.9086754728414;1703.2599487492696;2032.4302948815482;1108.9086754728414;1703.2599487492696;56.933830215913105
28200.544831;1140.7270794160763;1735.9543038266995;2077.2086112587663;1140.7270794160763;1735.9543038266995;56.69035788497837
28791.391094;1174.442450054067;1768.991967339315;2123.3576356798726;1174.442450054067;1768.991967339315;56.41962091150089
29394.616526;1209.9231123635761;1803.2343186947148;2171.535849565914;1209.9231123635761;1803.2343186947148;56.13942102048442
30010.48049;1255.9857710636015;1834.5305424678043;2223.286434169346;1255.9857710636015;1834.5305424678043;55.603051513533934
30639.247783;1298.459727413782;1870.2460231421744;2276.799914527974;1298.459727413782;1870.2460231421744;55.22882913216727
31281.188751;1338.9171529356183;1903.0562240901409;2326.8695998000076;1338.9171529356183;1903.0562240901409;54.87125529555016
31936.579403;1383.9862688691815;1943.516663858261;2385.932734825771;1383.9862688691815;1943.516663858261;54.545174473796536
32605.701532;1432.818117009172;1979.3504383632423;2443.5212121605305;1432.818117009172;1979.3504383632423;54.09986032909733
33288.842834;1487.107920862582;2019.0604334178954;2507.6074258316216;1487.107920862582;2019.0604334178954;53.62706787841919
33986.297032;1538.9515693375374;2058.4436385486647;2570.1288189209376;1538.9515693375374;2058.4436385486647;53.217154784604965
34698.364005;1596.0388522562507;2101.6301885214266;2638.9750789304658;1596.0388522562507;2101.6301885214266;52.78591052408857
35425.349913;1658.3702442961771;2141.43022264045;2708.4894804309083;1658.3702442961771;2141.43022264045;52.245018721675095
36167.567333;1726.7822611085237;2180.7853811571954;2781.6545177192656;1726.7822611085237;2180.7853811571954;51.62723099848197
36925.335387;1794.858768956085;2221.776095455886;2856.1874971433085;1794.858768956085;2221.776095455886;51.06703644173839
37698.979888;1865.6966292159084;2265.006793710799;2934.464122769893;1865.6966292159084;2265.006793710799;50.52155780871184
38488.833471;1947.984297201377;2307.599283313982;3019.877029697459;1947.984297201377;2307.599283313982;49.8302622757581
39295.235743;2022.4340623330602;2348.2197283357546;3099.0926783544646;2022.4340623330602;2348.2197283357546;49.26290641284257
40118.533425;2128.8230283599787;2391.7753275797013;3201.948891486986;2128.8230283599787;2391.7753275797013;48.32900610576951
40959.080503;2222.3636329966093;2430.640721599084;3293.465414234922;2222.3636329966093;2430.640721599084;47.56295433947872
41817.238378;2332.4137994617736;2470.230896749659;3397.380581444524;2332.4137994617736;2470.230896749659;46.6437134403244
42693.376026;2450.5088085197694;2500.5733360305185;3501.1227384226013;2450.5088085197694;2500.5733360305185;45.57934574404498
43587.870151;2580.3461137757995;2533.9430187446787;3616.4973785588127;2580.3461137757995;2533.9430187446787;44.48015677671883
44501.105351;2721.2016192987694;2563.753365315928;3738.6855405400156;2721.2016192987694;2563.753365315928;43.29356106318545
45433.47428;2866.749475432129;2585.0297204705143;3860.1335741922526;2866.749475432129;2585.0297204705143;42.041881556964825
46385.377822;3024.062744194923;2599.745531524351;3987.9358457112326;3024.062744194923;2599.745531524351;40.68519975405983
47357.225256;3185.605200170574;2606.1431019004895;4115.830700956651;3185.605200170574;2606.1431019004895;39.28659316897314
48349.43444;3375.8016235911277;2596.6571258527356;4258.95114213374;3375.8016235911277;2596.6571258527356;37.56738331526281
49362.431984;3576.075242272755;2574.273146582703;4406.267850643325;3576.075242272755;2574.273146582703;35.7486001180689
50396.653437;3774.2617783165724;2524.1238711139645;4540.51244772974;3774.2617783165724;2524.1238711139645;33.7735315337822
51452.543475;3989.3396172118178;2473.4485036920823;4693.908614563383;3989.3396172118178;2473.4485036920823;31.799513919617638
52530.556088;4215.89421150046;2378.8010655667235;4840.708472125178;4215.89421150046;2378.8010655667235;29.433686515927427
53631.15478;4442.199887736353;2256.0905509058734;4982.2770312871635;4442.199887736353;2256.0905509058734;26.924961320694695
54754.812765;4672.118375863549;2101.4051832930736;5122.947770810556;4672.118375863549;2101.4051832930736;24.21705582709977
55902.013172;4894.772374054379;1937.0390336392823;5264.115957276031;4894.772374054379;1937.0390336392823;21.590503031343694
57073.249251;5081.146007744774;1702.522890212221;5358.789876802151;5081.146007744774;1702.522890212221;18.524286090254677
58269.024589;5267.7719520628425;1451.5508105374015;5464.102954237937;5267.7719520628425;1451.5508105374015;15.405708477911014
59489.853323;5463.65491664096;1204.2948548678066;5594.805729030813;5463.65491664096;1204.2948548678066;12.430330169775429
60736.260359;5536.15129151406;778.944737316297;5590.682071655081;5536.15129151406;778.944737316297;8.00902639764863
62008.781606;5557.462267684251;530.736371226682;5582.7473480784565;5557.462267684251;530.736371226682;5.455189785326542
63307.964196;5575.715576679542;207.7917803775735;5579.586150963113;5575.715576679542;207.7917803775735;2.1342704379391404
64634.366728;5537.983793066264;-136.65287507269915;5539.669529902506;5537.983793066264;-136.65287507269915;-1.4135188475481353
65988.559502;5454.531240920225;-423.75286610256666;5470.96678382394;5454.531240920225;-423.75286610256666;-4.442284836153951
67371.124768;5327.2289030556485;-688.5386299094728;5371.5410480074615;5327.2289030556485;-688.5386299094728;-7.364590045074717
68782.656976;5174.12415570413;-932.262467813669;5257.439879593015;5174.12415570413;-932.262467813669;-10.21384262044439
70223.763028;5013.051206701737;-1119.271498538236;5136.482365243141;5013.051206701737;-1119.271498538236;-12.586085405351534
71695.062543;4859.50802411692;-1259.5755030876478;5020.094489592326;4859.50802411692;-1259.5755030876478;-14.531174395487644
73197.188124;4692.174290410497;-1393.3819635500843;4894.692315961845;4692.174290410497;-1393.3819635500843;-16.53924482751885
74730.785624;4550.9363143250175;-1484.1951965233202;4786.842040262564;4550.9363143250175;-1484.1951965233202;-18.06268215152124
76296.514431;4401.940611794508;-1572.7440862294582;4674.463082594143;4401.940611794508;-1572.7440862294582;-19.661008941147923
77895.047746;4290.590313093623;-1641.865147371534;4594.005485082293;4290.590313093623;-1641.865147371534;-20.940173884055028
79527.072877;4183.548797664388;-1698.6899698132613;4515.26612238784;4183.548797664388;-1698.6899698132613;-22.09914129027713
81193.291529;4088.787703201002;-1775.2491549326776;4457.543543694993;4088.787703201002;-1775.2491549326776;-23.46927758044649
82894.420112;3998.4153043739575;-1831.1533946290012;4397.777586567243;3998.4153043739575;-1831.1533946290012;-24.606348674032414
84631.190045;3914.1222013318275;-1888.656627313968;4345.960936646312;3914.1222013318275;-1888.656627313968;-25.758409498685513
86404.348069;3831.754697819031;-1954.752235627992;4301.557899988195;3831.754697819031;-1954.752235627992;-27.028194832419526
88214.656574;3745.8495441068467;-2029.1568526797391;4260.1486288464885;3745.8495441068467;-2029.1568526797391;-28.444761817916643
90062.893922;3656.0322615967375;-2095.734962890472;4214.104523207473;3656.0322615967375;-2095.734962890472;-29.82248219700165
91949.854781;3561.0482461864635;-2168.8706939409453;4169.540106379068;3561.0482461864635;-2168.8706939409453;-31.343671811562498
93876.350471;3474.6167276021547;-2229.1011957105848;4128.1779933102525;3474.6167276021547;-2229.1011957105848;-32.681743805698595
95843.209309;3373.865287184621;-2283.007003410457;4073.7069057175136;3373.865287184621;-2283.007003410457;-34.085191207167846
97851.276968;3287.5792860710617;-2342.4916184331482;4036.7616407998457;3287.5792860710617;-2342.4916184331482;-35.47092843939763
99901.416839;3185.087341806311;-2404.6531048957454;3990.8818486419195;3185.087341806311;-2404.6531048957454;-37.05179811050998
101994.510399;3091.6262197728834;-2463.362936200398;3953.012729328482;3091.6262197728834;-2463.362936200398;-38.54732872272804
104131.457599;2995.2235303941948;-2522.022794762178;3915.6050585225125;2995.2235303941948;-2522.022794762178;-40.09787763241055
106313.177241;2888.002887194747;-2572.8980443157757;3867.8631080855403;2888.002887194747;-2572.8980443157757;-41.6975814951361
108540.607379;2788.087352145332;-2617.905650040081;3824.5079521037146;2788.087352145332;-2617.905650040081;-43.19691327687209
110814.705721;2680.1417091851754;-2666.112130237073;3780.3853602921617;2680.1417091851754;-2666.112130237073;-44.84964540759677
113136.45004;2561.716237255815;-2704.2379261383485;3724.955414684198;2561.716237255815;-2704.2379261383485;-46.55031700722513
115506.838595;2437.130342389453;-2747.758914745587;3672.8440423409183;2437.130342389453;-2747.758914745587;-48.428512658922116
117926.89056;2311.994893256698;-2774.9084383675486;3611.8467890773654;2311.994893256698;-2774.9084383675486;-50.19965455239548
120397.646462;2180.1464259380186;-2794.19831962299;3544.091235833843;2180.1464259380186;-2794.19831962299;-52.037206247174296
122920.168629;2054.377959720374;-2802.36147012;3474.7228106135276;2054.377959720374;-2802.36147012;-53.75529891777271
125495.541648;1922.7390116817808;-2805.057087846429;3400.774995956145;1922.7390116817808;-2805.057087846429;-55.571135995623756
128124.872827;1796.7558036945786;-2791.1338548909134;3319.451703825251;1796.7558036945786;-2791.1338548909134;-57.22912214571681
130809.292676;1666.5212936089158;-2772.4940464647107;3234.8132032211997;1666.5212936089158;-2772.4940464647107;-58.990301444456286
133549.95539;1547.560607626585;-2742.8797994568476;3149.3385700089475;1547.560607626585;-2742.8797994568476;-60.5678678598254
136348.039347;1433.2526131534105;-2704.5242580097;3060.8274233079524;1433.2526131534105;-2704.5242580097;-62.07881256226407
139204.747612;1326.1200129192139;-2663.5655714407903;2975.4286820607144;1326.1200129192139;-2663.5655714407903;-63.53248088983636
142121.308459;1225.0487067922388;-2614.573562338106;2887.341207216548;1225.0487067922388;-2614.573562338106;-64.89473563676958
145098.975893;1131.407081577748;-2560.9908496364787;2799.7778690756973;1131.407081577748;-2560.9908496364787;-66.16488234353221
148139.030196;1047.9336434003158;-2503.6379920992467;2714.105398921163;1047.9336434003158;-2503.6379920992467;-67.28755179689767
151242.778471;966.7864512562729;-2447.139310447425;2631.1911460533984;966.7864512562729;-2447.139310447425;-68.44260952303442
154411.555209;891.7343820984219;-2386.2330147312555;2547.4100982782243;891.7343820984219;-2386.2330147312555;-69.50930303204747
157646.722859;825.5668636218602;-2324.585350588201;2466.831509949495;825.5668636218602;-2324.585350588201;-70.44771618485134
160949.672416;763.7141452975837;-2266.923012790289;2392.1118789985176;763.7141452975837;-2266.923012790289;-71.38160626079659
164321.824019;707.6441428864135;-2206.9372317026596;2317.613465968138;707.6441428864135;-2206.9372317026596;-72.22179387805183
167764.627562;656.4886233283669;-2147.0671003330153;2245.1891781967947;656.4886233283669;-2147.0671003330153;-72.9984299358238
171279.563313;610.1451045668823;-2090.8831074217665;2178.0884319808124;610.1451045668823;-2090.8831074217665;-73.73211327849033
174868.142559;567.918089733937;-2033.0334127026397;2110.8661288230446;567.918089733937;-2033.0334127026397;-74.39255014280137
178531.908247;528.8091620131952;-1976.8379992529115;2046.3449379611814;528.8091620131952;-1976.8379992529115;-75.02388032026822
182272.435653;493.3028980706381;-1923.3839694573262;1985.6368356802589;493.3028980706381;-1923.3839694573262;-75.6150410732329
186091.333056;461.43380233360057;-1869.565179922823;1925.6674468650867;461.43380233360057;-1869.565179922823;-76.13572191903603
189990.242434;431.7607162829026;-1817.1251088731149;1867.7154433752091;431.7607162829026;-1817.1251088731149;-76.63400612984533
193970.840164;403.78117605858284;-1768.3388919751164;1813.8527159091595;403.78117605858284;-1768.3388919751164;-77.1376414402277
198034.837746;379.58043936000803;-1718.189017358003;1759.6178020565706;379.58043936000803;-1718.189017358003;-77.54237228083328
202183.982541;358.2031164841312;-1671.1117531431469;1709.0710822409073;358.2031164841312;-1671.1117531431469;-77.90171114129856
206420.058519;337.3678980559491;-1625.589687354795;1660.2285777184268;337.3678980559491;-1625.589687354795;-78.27551787094177
210744.887025;317.8505480378492;-1580.772509654842;1612.4114543653022;317.8505480378492;-1580.772509654842;-78.6309702015023
215160.327566;303.9855137195211;-1537.7299854645617;1567.4886604847136;303.9855137195211;-1537.7299854645617;-78.81768521508357
219668.278608;287.8979101370163;-1497.8207563848355;1525.2384157627628;287.8979101370163;-1497.8207563848355;-79.11980502148833
224270.678394;273.3105066727949;-1457.6280609220064;1483.0300728727616;273.3105066727949;-1457.6280609220064;-79.38014554834946
228969.505775;261.2850744526961;-1419.2660257141365;1443.1167457548786;261.2850744526961;-1419.2660257141365;-79.56871994138194
233766.781062;249.39453981837678;-1381.9757761629824;1404.2986443034463;249.39453981837678;-1381.9757761629824;-79.77037127143578
238664.566896;238.06218994229204;-1346.977997262554;1367.8535489552821;238.06218994229204;-1346.977997262554;-79.9771623478854
243664.969133;228.49595343320257;-1313.4443753820267;1333.1716048423887;228.49595343320257;-1313.4443753820267;-80.13119338780534
248770.137748;220.1012398498964;-1281.378493214152;1300.144376081069;220.1012398498964;-1281.378493214152;-80.25346828052513
253982.267765;211.4402380401833;-1249.7433943524202;1267.5036591623702;211.4402380401833;-1249.7433943524202;-80.39723818450791
