Frequency (Hz);Trace 1: Impedance: Real (Ω);Trace 1: Impedance: Imaginary (Ω);Trace 1: Impedance: Magnitude (Ω);Trace 2: Impedance: Real (Ω);Trace 2: Impedance: Imaginary (Ω);Trace 2: Impedance: Phase (°)
10000;431.0477235417876;800.8994437023073;909.5284816283779;431.0477235417876;800.8994437023073;61.710660274026914
10209.515903;437.7383206588569;812.6698033236206;923.0639450261766;437.7383206588569;812.6698033236206;61.69121650755034
10423.421498;444.5588330966299;824.6123481550283;936.8127245154107;444.5588330966299;824.6123481550283;61.67033763102498
10641.808756;451.54434870551836;836.8682210889322;950.9157261905202;451.54434870551836;836.8682210889322;61.65027797346117
10864.771573;458.81817876820475;849.2715004440688;965.2855549704927;458.81817876820475;849.2715004440688;61.61990392052291
11092.405816;466.23247782062833;861.7785632392189;979.8137656888757;466.23247782062833;861.7785632392189;61.58608347247397
11324.809359;473.6220979508993;874.9126662099097;994.8819352877726;473.6220979508993;874.9126662099097;61.57170244949876
11562.082126;481.18610021879596;888.1111948982606;1010.0898759750982;481.18610021879596;888.1111948982606;61.550793441701316
11804.326134;489.03058770747197;901.4880879444676;1025.58845957786;489.03058770747197;901.4880879444676;61.521479977427234
12051.645539;497.1015494835998;915.2713567618566;1041.552498440518;497.1015494835998;915.2713567618566;61.49276054813125
12304.14668;505.32806513978034;929.2804125188622;1057.7894584978342;505.32806513978034;929.2804125188622;61.463348230454365
12561.938121;513.6423653189189;943.4849554481904;1074.2403551382195;513.6423653189189;943.4849554481904;61.43569859646122
12825.130702;522.1118603032594;958.289422534601;1091.2925419020462;522.1118603032594;958.289422534601;61.416801880725
13093.837587;530.9639118900253;973.2285224022226;1108.6462161333397;530.9639118900253;973.2285224022226;61.3844592777515
13368.174308;539.8203899520084;988.5137662407999;1126.3061393136013;539.8203899520084;988.5137662407999;61.36135769135774
13648.25882;549.259177119058;1004.0960125097948;1144.506201812631;549.259177119058;1004.0960125097948;61.32052118022603
13934.211547;558.9583425425943;1020.0083414127428;1163.121423261363;558.9583425425943;1020.0083414127428;61.27752778309428
14226.15544;568.8649710953956;1036.330654320947;1182.1965066877196;568.8649710953956;1036.330654320947;61.23663636058672
14524.216021;578.8113491170285;1052.9734457538564;1201.572159851178;578.8113491170285;1052.9734457538564;61.20274538339913
14828.521445;589.1494839894464;1070.0815123387817;1221.5447423382761;589.1494839894464;1070.0815123387817;61.16435604830257
15139.202552;599.8008519158611;1087.1368610553013;1241.6229768428766;599.8008519158611;1087.1368610553013;61.11336956865369
15456.392922;610.5741880260409;1105.0876180894081;1262.5448438523601;610.5741880260409;1105.0876180894081;61.07882219201332
15780.228934;622.1537831528211;1123.1543492949952;1283.9591201559463;622.1537831528211;1123.1543492949952;61.01642504300724
16110.849827;634.1294491445486;1141.8322474874756;1306.1014660717092;634.1294491445486;1141.8322474874756;60.95390132118729
16448.397752;646.3164523881009;1160.491392434145;1328.3317464177692;646.3164523881009;1160.491392434145;60.88510420501039
16793.017844;658.1033330229981;1180.1430305606618;1351.2355714370765;658.1033330229981;1180.1430305606618;60.85390411808121
17144.858275;670.7577881472023;1199.7468217702046;1374.521169974415;670.7577881472023;1199.7468217702046;60.791196041790855
17504.070322;684.2417370385494;1220.0376794229526;1398.8133163211146;684.2417370385494;1220.0376794229526;60.71469806251971
17870.808433;697.8023151797001;1240.8433910123601;1423.5941809691421;697.8023151797001;1240.8433910123601;60.64828320193372
18245.23029;711.8480410282638;1261.8205653058935;1448.7645676729746;711.8480410282638;1261.8205653058935;60.57075847010323
18627.496881;726.753936786182;1283.5418404494114;1475.0087934715764;726.753936786182;1283.5418404494114;60.481036731900964
19017.772565;741.3426734070367;1305.6972536351054;1501.4773649857493;741.3426734070367;1305.6972536351054;60.413159075804586
19416.225145;757.7110249305232;1328.602815440014;1529.4807741506254;757.7110249305232;1328.602815440014;60.303600247629085
19823.02594;773.9350579067399;1351.639803429913;1557.5319040305926;773.9350579067399;1351.639803429913;60.20499118200299
20238.349859;791.1198338908629;1375.320951487919;1586.6248173960792;791.1198338908629;1375.320951487919;60.0913844804979
20662.375475;809.0155551615667;1399.7708458197446;1616.7450600822324;809.0155551615667;1399.7708458197446;59.973683022978165
21095.285101;827.236078751859;1424.7693536582397;1647.5094054701083;827.236078751859;1424.7693536582397;59.86009871883846
21537.264873;845.8649779691301;1450.709543304289;1679.2991812029372;845.8649779691301;1450.709543304289;59.7548283510893
21988.504824;866.3884978036638;1476.4231913240044;1711.8570235290815;866.3884978036638;1476.4231913240044;59.594914666625954
22449.198969;886.754342193685;1503.6302052689512;1745.6337123224057;886.754342193685;1503.6302052689512;59.47034874168364
22919.54539;907.9585739826342;1532.3622957834225;1781.1577632560288;907.9585739826342;1532.3622957834225;59.35232000927637
23399.746316;930.6720836480082;1560.0209441667764;1816.539532606083;930.6720836480082;1560.0209441667764;59.18068407646494
23890.008215;954.9840273553891;1589.450586576007;1854.2782044964915;954.9840273553891;1589.450586576007;59.001436484860825
24390.541881;979.7034138563965;1618.908132304599;1892.2690929050875;979.7034138563965;1618.908132304599;58.81922261862876
24901.562522;1005.654034257383;1649.9824233793877;1932.299675019138;1005.654034257383;1649.9824233793877;58.63795204276715
25423.289859;1033.2256607797574;1680.9486561056383;1973.1050784378206;1033.2256607797574;1680.9486561056383;58.42228057412937
25955.948214;1062.4448912350288;1713.3571089618445;2016.0311827304413;1062.4448912350288;1713.3571089618445;58.19713834064696
26499.766608;1091.4836688743378;1746.4826477016177;2059.4995115663996;1091.4836688743378;1746.4826477016177;57.99622068355834
27054.978862;1122.3039657969532;1780.098261226953;2104.356436364046;1122.3039657969532;1780.098261226953;57.76967394609138
27621.823696;1155.2644279247775;1815.6543029305144;2152.0307725909624;1155.2644279247775;1815.6543029305144;57.532220687704175
28200.544831;1190.0187922136847;1851.0725158905047;2200.594052729153;1190.0187922136847;1851.0725158905047;57.26381875405917
28791.391094;1227.2410471408134;1887.9845363491615;2251.8006566481054;1227.2410471408134;1887.9845363491615;56.975042322909964
29394.616526;1265.4753995850508;1925.7562474982674;2304.336154239123;1265.4753995850508;1925.7562474982674;56.68981723977039
30010.48049;1316.1707315765327;1960.2484409971876;2361.1182403875096;1316.1707315765327;1960.2484409971876;56.1213811967505
30639.247783;1362.2622793203523;1999.1297409841948;2419.148246583209;1362.2622793203523;1999.1297409841948;55.72840073422109
31281.188751;1410.2579157267803;2035.2100529615086;2476.066911160849;1410.2579157267803;2035.2100529615086;55.28075384229238
31936.579403;1457.122784472967;2079.1987238269844;2538.9513863392526;1457.122784472967;2079.1987238269844;54.97685302703131
32605.701532;1515.1439014227944;2120.615624177011;2606.2754396882806;1515.1439014227944;2120.615624177011;54.454836483036786
33288.842834;1569.3120179446664;2164.4190014955484;2673.4714929657557;1569.3120179446664;2164.4190014955484;54.05601002986377
33986.297032;1631.194275706911;2209.2497742012606;2746.1936075060903;1631.194275706911;2209.2497742012606;53.55978283160446
34698.364005;1693.6511409682407;2252.0447803794655;2817.8289302470826;1693.6511409682407;2252.0447803794655;53.05499019236925
35425.349913;1762.7109866920052;2295.657692565809;2894.3383119534037;1762.7109866920052;2295.657692565809;52.481297077649366
36167.567333;1839.5627482875695;2341.1197422810424;2977.386900049332;1839.5627482875695;2341.1197422810424;51.84108589962224
36925.335387;1918.7211086744494;2388.3865548361473;3063.6385276652645;1918.7211086744494;2388.3865548361473;51.223188718251194
37698.979888;1998.632232819814;2436.540788417094;3151.3904575102256;1998.632232819814;2436.540788417094;50.638844995476816
38488.833471;2088.3543475635847;2480.836176171526;3242.803110580271;2088.3543475635847;2480.836176171526;49.909510466380056
39295.235743;2175.5535102934077;2527.826068718614;3335.106851338255;2175.5535102934077;2527.826068718614;49.283327688591356
40118.533425;2292.6371355029014;2568.811950248266;3443.106137025876;2292.6371355029014;2568.811950248266;48.251430067090894
40959.080503;2408.2269993425475;2617.6147995667684;3556.8897254867743;2408.2269993425475;2617.6147995667684;47.385690533272225
41817.238378;2538.0841783395026;2653.1608980953893;3671.666385651022;2538.0841783395026;2653.1608980953893;46.269893944705004
42693.376026;2671.1923216295354;2696.4579299074767;3795.543938211426;2671.1923216295354;2696.4579299074767;45.269690080829754
43587.870151;2814.096658024492;2726.7261552426858;3918.440445686163;2814.096658024492;2726.7261552426858;44.09660597529166
44501.105351;2975.3885352347556;2743.423485494616;4047.1359448837215;2975.3885352347556;2743.423485494616;42.677255930018404
45433.47428;3152.2270780806166;2766.3576413617416;4193.956384096664;3152.2270780806166;2766.3576413617416;41.269810069469045
46385.377822;3327.9486409144524;2778.202144420751;4335.164277375012;3327.9486409144524;2778.202144420751;39.85543971389359
47357.225256;3532.714529654793;2776.267980013452;4493.0764343467445;3532.714529654793;2776.267980013452;38.16287895548455
48349.43444;3741.6647974631233;2763.799629835393;4651.735574003859;3741.6647974631233;2763.799629835393;36.45161620377136
49362.431984;3976.584937319771;2710.5429881428886;4812.511927703563;3976.584937319771;2710.5429881428886;34.279352636097734
50396.653437;4207.679753753382;2655.020849181741;4975.309499894037;4207.679753753382;2655.020849181741;32.25168139040093
51452.543475;4461.060342518256;2552.2201286013596;5139.541513056105;4461.060342518256;2552.2201286013596;29.77433308171024
52530.556088;4711.312729753422;2426.441953973452;5299.442253062028;4711.312729753422;2426.441953973452;27.24958142638949
53631.15478;4970.685534866685;2272.4060530404327;5465.486616617746;4970.685534866685;2272.4060530404327;24.568054813769656
54754.812765;5230.248306414256;2049.6272964700397;5617.514521670974;5230.248306414256;2049.6272964700397;21.39919660047602
55902.013172;5475.817250798511;1827.4510075613075;5772.707488620864;5475.817250798511;1827.4510075613075;18.45546233284414
57073.249251;5665.395902714558;1524.8287473851922;5867.010605354929;5665.395902714558;1524.8287473851922;15.064054665927856
58269.024589;5847.4508949567635;1203.2219201054577;5969.96021410134;5847.4508949567635;1203.2219201054577;11.627382601938017
59489.853323;6043.668808971559;864.4276880843651;6105.175501200812;6043.668808971559;864.4276880843651;8.139824173807412
60736.260359;6029.020743923901;370.99345564707517;6040.424428365748;6029.020743923901;370.99345564707517;3.521233679149056
62008.781606;6035.14525370695;54.85826207047952;6035.3945738666425;6035.14525370695;54.85826207047952;0.5207928215950441
63307.964196;5969.0537940721115;-319.96318837815284;5977.623243266824;5969.0537940721115;-319.96318837815284;-3.0683274958404314
64634.366728;5869.066501452031;-706.4057639455285;5911.425437388333;5869.066501452031;-706.4057639455285;-6.863153564745091
65988.559502;5699.101236246768;-1032.5348443335163;5791.880791742202;5699.101236246768;-1032.5348443335163;-10.269171813733548
67371.124768;5485.553323151214;-1303.7144744964155;5638.347869025712;5485.553323151214;-1303.7144744964155;-13.369072660389806
68782.656976;5260.005853409747;-1540.13266961364;5480.84575753743;5260.005853409747;-1540.13266961364;-16.320060410669363
70223.763028;5007.129820908127;-1705.9135964077582;5289.753325235148;5007.129820908127;-1705.9135964077582;-18.813817386463484
71695.062543;4777.772459056273;-1847.9344967828604;5122.691829001306;4777.772459056273;-1847.9344967828604;-21.145344862204528
73197.188124;4534.716156778697;-1929.8786918671112;4928.294064671108;4534.716156778697;-1929.8786918671112;-23.053571400875576
74730.785624;4335.857947271219;-1996.3182933219518;4773.358447379252;4335.857947271219;-1996.3182933219518;-24.722316688326387
76296.514431;4134.39825015162;-2008.7213680716357;4596.543312686649;4134.39825015162;-2008.7213680716357;-25.913068062801692
77895.047746;3975.0311356221114;-2035.2670684306274;4465.779279028848;3975.0311356221114;-2035.2670684306274;-27.11303030468662
79527.072877;3831.696890513512;-2032.388089165627;4337.338170554981;3831.696890513512;-2032.388089165627;-27.942133304680887
81193.291529;3705.482757987132;-2035.1886320321946;4227.599228603984;3705.482757987132;-2035.1886320321946;-28.777223993414218
82894.420112;3605.156983157744;-2026.9702353116995;4135.911653801446;3605.156983157744;-2026.9702353116995;-29.346517732574195
84631.190045;3519.703684915881;-2015.4569525964314;4055.906897030518;3519.703684915881;-2015.4569525964314;-29.796367147766073
86404.348069;3442.2229567303757;-2016.6569781284568;3989.4616493050553;3442.2229567303757;-2016.6569781284568;-30.364284686719376
88214.656574;3381.752181142968;-2028.3250367844194;3943.393243072739;3381.752181142968;-2028.3250367844194;-30.954707912407734
90062.893922;3324.2665259549426;-2037.705274690684;3899.1012710734735;3324.2665259549426;-2037.705274690684;-31.50741889472541
91949.854781;3271.7599098014703;-2056.0087396846093;3864.140893529068;3271.7599098014703;-2056.0087396846093;-32.145691209127754
93876.350471;3221.8775812813838;-2077.8472118107043;3833.7897939758113;3221.8775812813838;-2077.8472118107043;-32.81870262982281
95843.209309;3179.7309216717895;-2109.421964714349;3815.8026363342055;3179.7309216717895;-2109.421964714349;-33.56015123025048
97851.276968;3138.696146092582;-2157.2325250738554;3808.5516492142974;3138.696146092582;-2157.2325250738554;-34.500823596318796
99901.416839;3083.7597681261827;-2213.590152416869;3795.9920535204737;3083.7597681261827;-2213.590152416869;-35.67161147220516
101994.510399;3030.193243788001;-2264.9263387813467;3783.115437678835;3030.193243788001;-2264.9263387813467;-36.77637830876966
104131.457599;2971.242172394856;-2332.968271742019;3777.7004915652915;2971.242172394856;-2332.968271742019;-38.138393706953266
106313.177241;2911.1939976884637;-2398.6187412217196;3772.0581063813697;2911.1939976884637;-2398.6187412217196;-39.48611813850361
108540.607379;2826.4397166755793;-2467.6648136442823;3752.0835684322383;2826.4397166755793;-2467.6648136442823;-41.12306385656168
110814.705721;2731.5972503355547;-2540.8997635760797;3730.656128160533;2731.5972503355547;-2540.8997635760797;-42.92860944010446
113136.45004;2632.369804980047;-2603.172686492964;3702.145165424188;2632.369804980047;-2603.172686492964;-44.68048118712637
115506.838595;2519.599530079675;-2657.6733965391113;3662.186460934158;2519.599530079675;-2657.6733965391113;-46.52767202914999
117926.89056;2401.781952565746;-2707.303119746744;3619.1223701141935;2401.781952565746;-2707.303119746744;-48.42218848355307
120397.646462;2276.320236868518;-2740.4898084103243;3562.5718534196612;2276.320236868518;-2740.4898084103243;-50.286119284821105
122920.168629;2143.3085405842044;-2762.0334434169354;3496.0835577392604;2143.3085405842044;-2762.0334434169354;-52.18891794805069
125495.541648;2009.3676102504094;-2776.191534587577;3427.0683725072026;2009.3676102504094;-2776.191534587577;-54.10351989390381
128124.872827;1878.3357119238178;-2777.75322768645;3353.2160742503374;1878.3357119238178;-2777.75322768645;-55.93317368508138
130809.292676;1751.758846237459;-2764.8809864033387;3273.1064639491783;1751.758846237459;-2764.8809864033387;-57.64268431820272
133549.95539;1626.577643618663;-2744.770043346904;3190.5356010511164;1626.577643618663;-2744.770043346904;-59.3486021081243
136348.039347;1504.6248165598222;-2713.6235029034956;3102.845203054435;1504.6248165598222;-2713.6235029034956;-60.99291409033685
139204.747612;1392.3314857700655;-2670.2304248789546;3011.4311362234266;1392.3314857700655;-2670.2304248789546;-62.46122641910239
142121.308459;1290.195240532162;-2626.448314628124;2926.2321350338484;1290.195240532162;-2626.448314628124;-63.83825599706058
145098.975893;1194.7176608079462;-2576.268436988658;2839.8079773939635;1194.7176608079462;-2576.268436988658;-65.12097840879782
148139.030196;1104.6129815874435;-2524.3032369082616;2755.408621412989;1104.6129815874435;-2524.3032369082616;-66.36623464197856
151242.778471;1023.0372964466078;-2466.4036242872776;2670.1595734746275;1023.0372964466078;-2466.4036242872776;-67.47185991129952
154411.555209;943.8828404362378;-2405.6466557179574;2584.1924558045157;943.8828404362378;-2405.6466557179574;-68.57687515637019
157646.722859;876.1405324823322;-2347.1304629479523;2505.323061554476;876.1405324823322;-2347.1304629479523;-69.53032379326069
160949.672416;813.774762663631;-2285.676296676875;2426.220414047076;813.774762663631;-2285.676296676875;-70.40262416344008
164321.824019;756.229737032997;-2226.2161151057667;2351.1532502858267;756.229737032997;-2226.2161151057667;-71.23774215542342
167764.627562;703.3357780330135;-2168.0662674750643;2279.2965048068145;703.3357780330135;-2168.0662674750643;-72.02657652398237
171279.563313;656.5260202388574;-2108.5631343767295;2208.4077764088975;656.5260202388574;-2108.5631343767295;-72.70540651369085
174868.142559;613.2062549137571;-2051.0328239025876;2140.7376195580764;613.2062549137571;-2051.0328239025876;-73.35468292857767
178531.908247;575.6737099445047;-1995.2705340973278;2076.6571032691713;575.6737099445047;-1995.2705340973278;-73.90613765600226
182272.435653;538.8972103154341;-1942.5972129074487;2015.9598544816176;538.8972103154341;-1942.5972129074487;-74.49541742703636
186091.333056;505.3527935445215;-1889.1489946588572;1955.5729007029686;505.3527935445215;-1889.1489946588572;-75.02386158536702
189990.242434;476.83743613117775;-1837.317982685272;1898.1863212010649;476.83743613117775;-1837.317982685272;-75.4510602354816
193970.840164;449.4835657637687;-1788.2644542229646;1843.888617603859;449.4835657637687;-1788.2644542229646;-75.89088104108676
198034.837746;423.6030742642489;-1739.2444915092403;1790.0868598398677;423.6030742642489;-1739.2444915092403;-76.3117865749849
202183.982541;404.84810674017103;-1689.938783520158;1737.7557600470477;404.84810674017103;-1689.938783520158;-76.52790191922851
206420.058519;383.45888202169;-1647.4501243871928;1691.4882874394082;383.45888202169;-1647.4501243871928;-76.89718817196108
210744.887025;365.0418686584605;-1603.1981787980824;1644.2323334538673;365.0418686584605;-1603.1981787980824;-77.17267354332672
215160.327566;350.1232464813084;-1561.0716494536287;1599.8534253032321;350.1232464813084;-1561.0716494536287;-77.35867466198981
219668.278608;335.48641851365505;-1521.258412581431;1557.8120216691404;335.48641851365505;-1521.258412581431;-77.56350127917212
224270.678394;321.3637079786686;-1483.0384239435211;1517.457610511306;321.3637079786686;-1483.0384239435211;-77.77344864046228
228969.505775;308.4308005883217;-1446.0611630858964;1478.5879906643663;308.4308005883217;-1446.0611630858964;-77.95978388623281
233766.781062;298.0470988756042;-1411.6175152708838;1442.7390902611976;298.0470988756042;-1411.6175152708838;-78.07774772680467
238664.566896;288.05708544832936;-1377.4426911044334;1407.24029637941;288.05708544832936;-1377.4426911044334;-78.18827021069458
243664.969133;277.5259622695922;-1345.2174752716728;1373.546764951946;277.5259622695922;-1345.2174752716728;-78.34310117670496
248770.137748;268.6040229189558;-1314.9207336540956;1342.0747583207399;268.6040229189558;-1314.9207336540956;-78.45480258018725
