Frequency (Hz);Trace 1: Impedance: Real (Ω);Trace 1: Impedance: Imaginary (Ω);Trace 1: Impedance: Magnitude (Ω);Trace 2: Impedance: Real (Ω);Trace 2: Impedance: Imaginary (Ω);Trace 2: Impedance: Phase (°)
10000;451.31367123155616;870.8936125771689;980.8872077197343;451.31367123155616;870.8936125771689;62.60594824491409
10209.515903;458.38072569364607;883.8134001680554;995.6098713874088;458.38072569364607;883.8134001680554;62.586952392365475
10423.421498;465.4459512508581;897.0283324263285;1010.5937674018061;465.4459512508581;897.0283324263285;62.576311005469606
10641.808756;472.73680581549536;910.5099942990316;1025.9183872467925;472.73680581549536;910.5099942990316;62.56165982178216
10864.771573;480.31903181190296;923.8475831747023;1041.2495998839386;480.31903181190296;923.8475831747023;62.52955752403742
11092.405816;487.99954096487215;937.9588250181783;1057.3127774747677;487.99954096487215;937.9588250181783;62.51302225282329
11324.809359;495.6334810391505;952.247272538588;1073.5117212141495;495.6334810391505;952.247272538588;62.503554091999426
11562.082126;503.63390138723344;966.7067407833935;1090.031664357773;503.63390138723344;966.7067407833935;62.48143305192427
11804.326134;511.89879966841386;981.382885119758;1106.8661835596672;511.89879966841386;981.382885119758;62.45301930507934
12051.645539;519.9766091050939;996.6296178480571;1124.1202200780822;519.9766091050939;996.6296178480571;62.447371938188894
12304.14668;528.7996726790752;1012.0364392220755;1141.861133474117;528.7996726790752;1012.0364392220755;62.41245943703741
12561.938121;537.3826849301616;1027.6667199610795;1159.6891986124183;537.3826849301616;1027.6667199610795;62.394242107397325
12825.130702;546.2120777002474;1043.8892367670062;1178.156344660429;546.2120777002474;1043.8892367670062;62.37931431005188
13093.837587;555.3157425869539;1060.3358014465534;1196.949282883032;555.3157425869539;1060.3358014465534;62.35819068742259
13368.174308;564.6658084844526;1077.3252661900553;1216.3376194309185;564.6658084844526;1077.3252661900553;62.33931270496317
13648.25882;574.330345006002;1094.1029287026847;1235.684653862184;574.330345006002;1094.1029287026847;62.30355255242379
13934.211547;584.3502027925531;1111.6708540903692;1255.896989142704;584.3502027925531;1111.6708540903692;62.27132280740359
14226.15544;594.3261931306004;1129.5757023374256;1276.3874377132518;594.3261931306004;1129.5757023374256;62.248900904663536
14524.216021;604.8489320905529;1148.0923770497268;1297.6742029071759;604.8489320905529;1148.0923770497268;62.21841556308886
14828.521445;615.4828928751452;1166.6576840023556;1319.0562319566582;615.4828928751452;1166.6576840023556;62.185626715759156
15139.202552;626.5236264573246;1185.537436213533;1340.906733211894;626.5236264573246;1185.537436213533;62.1447914496256
15456.392922;637.9887751091659;1205.074955235975;1363.5377973867394;637.9887751091659;1205.074955235975;62.10243497790816
15780.228934;649.3968253690566;1225.0245145535687;1386.5068690982444;649.3968253690566;1225.0245145535687;62.07152370399233
16110.849827;661.3176952961716;1245.3516410313214;1410.0502841853709;661.3176952961716;1245.3516410313214;62.03040688260079
16448.397752;673.8820685407229;1265.8103099918533;1434.0128253200512;673.8820685407229;1265.8103099918533;61.97040919609102
16793.017844;686.3975215788759;1287.2061701293135;1458.7807518776078;686.3975215788759;1287.2061701293135;61.93140960874127
17144.858275;699.6316863049814;1308.966873073555;1484.2098137682262;699.6316863049814;1308.966873073555;61.87587441752667
17504.070322;713.3920666901761;1330.8848368015797;1510.027380428861;713.3920666901761;1330.8848368015797;61.8074276952535
17870.808433;727.1700571586323;1354.1910042890925;1537.0782569946102;727.1700571586323;1354.1910042890925;61.76520355783527
18245.23029;741.2774722349538;1376.9178354628054;1563.7758843448828;741.2774722349538;1376.9178354628054;61.70375493744886
18627.496881;756.5329309171186;1401.0530238181502;1592.2599194578843;756.5329309171186;1401.0530238181502;61.63208411810901
19017.772565;771.9774609645273;1424.9515035142372;1620.6282694081092;771.9774609645273;1424.9515035142372;61.55306960917104
19416.225145;787.7452732731762;1449.6501014953196;1649.8569732948433;787.7452732731762;1449.6501014953196;61.480178062407056
19823.02594;804.3807742671373;1475.6181802572617;1680.6181731483066;804.3807742671373;1475.6181802572617;61.404560933046234
20238.349859;821.6225601609519;1501.786755121224;1711.8490264106154;821.6225601609519;1501.786755121224;61.31707682983489
20662.375475;839.5717675200214;1528.3412096562647;1743.7624855324384;839.5717675200214;1528.3412096562647;61.21845427702571
21095.285101;858.3211860761605;1555.4598985944167;1776.5614975571605;858.3211860761605;1555.4598985944167;61.10956613436581
21537.264873;877.7830000819177;1583.4191983187918;1810.4472797729675;877.7830000819177;1583.4191983187918;60.997802087114955
21988.504824;897.597054168738;1611.8908398085116;1844.9586854753645;897.597054168738;1611.8908398085116;60.88832852207774
22449.198969;918.6628654454887;1640.8616880851855;1880.5234749330518;918.6628654454887;1640.8616880851855;60.757013525541595
22919.54539;939.9019822327126;1672.55317073798;1918.5541027426495;939.9019822327126;1672.55317073798;60.66591119713778
23399.746316;962.5131355532151;1703.7222256898663;1956.808871203857;962.5131355532151;1703.7222256898663;60.53584407293949
23890.008215;985.9541815638585;1735.0763102466728;1995.6441192062443;985.9541815638585;1735.0763102466728;60.39266936157848
24390.541881;1010.944735690441;1767.8632284070416;2036.5042727610426;1010.944735690441;1767.8632284070416;60.23711133600354
24901.562522;1036.0030704303388;1801.0038603043924;2077.7192463786855;1036.0030704303388;1801.0038603043924;60.090917749380544
25423.289859;1062.710361641715;1835.4938256406938;2120.9410403652846;1062.710361641715;1835.4938256406938;59.93010698858344
25955.948214;1090.9820557046369;1870.6612881470755;2165.552008343737;1090.9820557046369;1870.6612881470755;59.74897982827115
26499.766608;1120.548244737463;1907.037217488656;2211.88139774064;1120.548244737463;1907.037217488656;59.56210409590334
27054.978862;1151.5816823354148;1945.1645452156567;2260.4878851819794;1151.5816823354148;1945.1645452156567;59.37350166665923
27621.823696;1184.5698293268863;1982.2049658787485;2309.186481708634;1184.5698293268863;1982.2049658787485;59.137372519806284
28200.544831;1217.8284306461433;2020.9303863845737;2359.5053958621393;1217.8284306461433;2020.9303863845737;58.92650485463547
28791.391094;1253.593529752435;2062.745284170626;2413.796769656742;1253.593529752435;2062.745284170626;58.711667513171726
29394.616526;1292.18069081697;2104.0205268055224;2469.1361475097337;1292.18069081697;2104.0205268055224;58.44390354964027
30010.48049;1343.2728466779695;2142.300224242039;2528.6028140872236;1343.2728466779695;2142.300224242039;57.91131641931881
30639.247783;1385.7619225030478;2184.359866183609;2586.8444349927613;1385.7619225030478;2184.359866183609;57.608882972682586
31281.188751;1432.736542194421;2226.4196397227392;2647.5797271248243;1432.736542194421;2226.4196397227392;57.238072889603984
31936.579403;1479.669476601304;2273.209264801739;2712.3609865882604;1479.669476601304;2273.209264801739;56.93923187611909
32605.701532;1529.8707708153781;2322.9491613201058;2781.473958438766;1529.8707708153781;2322.9491613201058;56.631504826755275
33288.842834;1587.8528983793913;2371.2869650856196;2853.818266406746;1587.8528983793913;2371.2869650856196;56.1930823834641
33986.297032;1641.024511905745;2420.6865361470973;2924.497350821047;1641.024511905745;2420.6865361470973;55.86598806646107
34698.364005;1702.5958704341988;2471.1111030190305;3000.8703373327407;1702.5958704341988;2471.1111030190305;55.43315320588825
35425.349913;1771.1208378067522;2522.7987438694;3082.431268363062;1771.1208378067522;2522.7987438694;54.92937837437055
36167.567333;1841.6954197907205;2571.111166316643;3162.6657504131294;1841.6954197907205;2571.111166316643;54.38584974909978
36925.335387;1911.8808070136856;2630.9654753384793;3252.2711376283396;1911.8808070136856;2630.9654753384793;53.99469092100166
37698.979888;1985.2339336468222;2684.062310722812;3338.4643564287935;1985.2339336468222;2684.062310722812;53.51197081808377
38488.833471;2067.5742368125066;2743.2165942350634;3435.1274368817003;2067.5742368125066;2743.2165942350634;52.99450836561989
39295.235743;2147.0077472612325;2797.848889700101;3526.698268408547;2147.0077472612325;2797.848889700101;52.49815962498666
40118.533425;2262.5120665466125;2858.854544349446;3645.8209167506434;2262.5120665466125;2858.854544349446;51.64172850913072
40959.080503;2374.494185860491;2913.3619729020247;3758.4439098963353;2374.494185860491;2913.3619729020247;50.81873483898266
41817.238378;2483.669685977758;2976.920916164958;3876.9412234576457;2483.669685977758;2976.920916164958;50.16147890415437
42693.376026;2607.0660371606023;3024.9955984874246;3993.418547182924;2607.0660371606023;3024.9955984874246;49.24387985577132
43587.870151;2735.853302713286;3078.060838775866;4118.1733597764905;2735.853302713286;3078.060838775866;48.36854846270855
44501.105351;2886.8175891692163;3132.2531228345215;4259.662594460197;2886.8175891692163;3132.2531228345215;47.33501727436821
45433.47428;3047.833343900626;3183.113348240448;4406.98294527435;3047.833343900626;3183.113348240448;46.243752543148155
46385.377822;3218.5499517186263;3228.3772035525767;4558.671205529735;3218.5499517186263;3228.3772035525767;45.08733767338006
47357.225256;3397.0370849017127;3263.445168286673;4710.619420268545;3397.0370849017127;3263.445168286673;43.85095004791594
48349.43444;3601.959371661878;3310.464422878691;4892.165779105239;3601.959371661878;3310.464422878691;42.58528391878831
49362.431984;3818.5574388034993;3314.905409918454;5056.676654696063;3818.5574388034993;3314.905409918454;40.961382471917474
50396.653437;4056.9842688244817;3325.279656928179;5245.627336579459;4056.9842688244817;3325.279656928179;39.339527404524794
51452.543475;4295.029005017275;3316.7732318463904;5426.624993993268;4295.029005017275;3316.7732318463904;37.67658871763421
52530.556088;4576.174720183871;3289.252744882514;5635.650689083478;4576.174720183871;3289.252744882514;35.707741207832434
53631.15478;4866.593288842527;3217.833239862266;5834.224969828435;4866.593288842527;3217.833239862266;33.47301965656682
54754.812765;5172.360625734868;3130.3084890723812;6045.837053660231;5172.360625734868;3130.3084890723812;31.182292401892592
55902.013172;5489.988282483104;3011.610727777918;6261.770557715192;5489.988282483104;3011.610727777918;28.747593502308344
57073.249251;5794.568658902589;2829.930710909118;6448.684654352602;5794.568658902589;2829.930710909118;26.029792476026373
58269.024589;6105.828899399807;2627.2294940583383;6647.065620497204;6105.828899399807;2627.2294940583383;23.281349198198807
59489.853323;6475.992692707447;2421.4517602473493;6913.89253483197;6475.992692707447;2421.4517602473493;20.501376308956928
60736.260359;6747.315234678675;1939.934758382248;7020.655933949943;6747.315234678675;1939.934758382248;16.04058354338661
62008.781606;6901.7497265814;1656.654711896132;7097.792200594075;6901.7497265814;1656.654711896132;13.49757615264224
63307.964196;7134.655666958319;1277.4487858819969;7248.116092241613;7134.655666958319;1277.4487858819969;10.151154214699043
64634.366728;7297.3066085634055;793.7238014538563;7340.346123472483;7297.3066085634055;793.7238014538563;6.207625054796568
65988.559502;7388.48583450827;315.10985654428015;7395.202306118524;7388.48583450827;315.10985654428015;2.442114753769194
67371.124768;7404.026187482096;-175.1341407750142;7406.097201102999;7404.026187482096;-175.1341407750142;-1.3550163168377396
68782.656976;7318.635599551369;-671.9262305475472;7349.4157521750285;7318.635599551369;-671.9262305475472;-5.245637749553059
70223.763028;7177.708568668213;-1111.0464621000667;7263.189694457813;7177.708568668213;-1111.0464621000667;-8.799052581263226
71695.062543;7018.297728678702;-1526.9130413407029;7182.476344840471;7018.297728678702;-1526.9130413407029;-12.274097781844763
73197.188124;6756.1529152844505;-1925.590801685542;7025.204776392112;6756.1529152844505;-1925.590801685542;-15.908236040334904
74730.785624;6496.082087313417;-2243.231733437603;6872.49380465459;6496.082087313417;-2243.231733437603;-19.05085400205822
76296.514431;6162.1438088647965;-2508.470535766542;6653.152692516505;6162.1438088647965;-2508.470535766542;-22.150135954640206
77895.047746;5840.018023490119;-2719.294015602353;6442.078116414004;5840.018023490119;-2719.294015602353;-24.968151295116282
79527.072877;5523.087862802023;-2865.5828519166407;6222.223446761594;5523.087862802023;-2865.5828519166407;-27.421958887735347
81193.291529;5221.312038150073;-3006.9873666709955;6025.286086407004;5221.312038150073;-3006.9873666709955;-29.937918363710345
82894.420112;4941.908099168179;-3072.4705431350785;5819.1520773268;4941.908099168179;-3072.4705431350785;-31.869938134025265
84631.190045;4674.8474372669925;-3084.942960993538;5600.988451541865;4674.8474372669925;-3084.942960993538;-33.42091502062335
86404.348069;4436.988527703804;-3100.802799275685;5413.117881126467;4436.988527703804;-3100.802799275685;-34.947890696735904
88214.656574;4230.106074798159;-3090.862794099376;5239.010423352113;4230.106074798159;-3090.862794099376;-36.15493100733932
90062.893922;4033.0827971098006;-3063.647711550342;5064.750156605029;4033.0827971098006;-3063.647711550342;-37.22136702097939
91949.854781;3877.3327129509294;-3036.8002770337794;4925.0243542049475;3877.3327129509294;-3036.8002770337794;-38.06871850671577
93876.350471;3734.317697560871;-3011.8154200284457;4797.516106344767;3734.317697560871;-3011.8154200284457;-38.88699614885399
95843.209309;3611.5423461135188;-3002.5150966020046;4696.630177381873;3611.5423461135188;-3002.5150966020046;-39.738998323182656
97851.276968;3524.261536272452;-2992.913258166296;4623.629434433198;3524.261536272452;-2992.913258166296;-40.338957979710166
99901.416839;3414.145136414738;-3000.233459432705;4545.083918213606;3414.145136414738;-3000.233459432705;-41.30789526957615
101994.510399;3328.5755029965153;-3003.5634701159097;4483.39250993745;3328.5755029965153;-3003.5634701159097;-42.061736862919126
104131.457599;3241.9448957645764;-3018.178278205149;4429.402536031625;3241.9448957645764;-3018.178278205149;-42.95284753268662
106313.177241;3145.966153537036;-3044.7160965352296;4378.058833284603;3145.966153537036;-3044.7160965352296;-44.06299765860738
108540.607379;3055.874221622031;-3079.930258601524;4338.702300944755;3055.874221622031;-3079.930258601524;-45.22463270027527
110814.705721;2950.806764854864;-3112.8627731230895;4289.192838729544;2950.806764854864;-3112.8627731230895;-46.530907238267766
113136.45004;2833.745359812475;-3151.546035915954;4238.20188060412;2833.745359812475;-3151.546035915954;-48.03937659344267
115506.838595;2718.1701937608764;-3183.4811617244895;4186.048436091578;2718.1701937608764;-3183.4811617244895;-49.50811379506876
117926.89056;2589.907642344461;-3209.1598193666296;4123.872978416224;2589.907642344461;-3209.1598193666296;-51.0952196659436
120397.646462;2461.247911349806;-3230.637291366369;4061.373978038813;2461.247911349806;-3230.637291366369;-52.69818409482573
122920.168629;2321.606057072608;-3235.5529395919407;3982.292996395201;2321.606057072608;-3235.5529395919407;-54.33942855375596
125495.541648;2185.3028944567573;-3231.487060193703;3901.0328581954323;2185.3028944567573;-3231.487060193703;-55.93135761528012
128124.872827;2056.324821472857;-3225.6343693174335;3825.3351298843418;2056.324821472857;-3225.6343693174335;-57.48270521582433
130809.292676;1921.819794596712;-3198.1082532458317;3731.1241901580884;1921.819794596712;-3198.1082532458317;-58.997334665333604
133549.95539;1793.974174865315;-3173.29807785504;3645.2934080814643;1793.974174865315;-3173.29807785504;-60.519035683277586
136348.039347;1673.105423297224;-3131.9336304396315;3550.815402544232;1673.105423297224;-3131.9336304396315;-61.8884903487894
139204.747612;1556.2583528688535;-3091.1282463410384;3460.7822665116482;1556.2583528688535;-3091.1282463410384;-63.27658958246238
142121.308459;1441.1772932565304;-3038.1292935029633;3362.6212386528214;1441.1772932565304;-3038.1292935029633;-64.62204988511859
145098.975893;1334.3003373929077;-2984.158870805203;3268.8777212634022;1334.3003373929077;-2984.158870805203;-65.90925486606511
148139.030196;1235.3958955026746;-2926.2177586494063;3176.3112866436772;1235.3958955026746;-2926.2177586494063;-67.11141373378678
151242.778471;1145.6501413962762;-2862.264305208213;3083.0295488934844;1145.6501413962762;-2862.264305208213;-68.18574552910329
154411.555209;1060.4538855708545;-2800.233318659029;2994.3061103284817;1060.4538855708545;-2800.233318659029;-69.25822423160369
157646.722859;980.6040463078692;-2733.3302889562606;2903.907499243232;980.6040463078692;-2733.3302889562606;-70.26414666063107
160949.672416;911.8737451842843;-2667.1431717955184;2818.7171596334156;911.8737451842843;-2667.1431717955184;-71.12487465245304
164321.824019;844.7124243724647;-2600.3688904055853;2734.1282790093046;844.7124243724647;-2600.3688904055853;-72.00395903191765
167764.627562;785.0694872333244;-2534.2522342083134;2653.0677500536285;785.0694872333244;-2534.2522342083134;-72.78788229693741
171279.563313;727.0546089028452;-2468.112273506226;2572.972327670653;727.0546089028452;-2468.112273506226;-73.58612167667265
174868.142559;676.207247056925;-2403.883650123726;2497.1809794855626;676.207247056925;-2403.883650123726;-74.28882279083041
178531.908247;627.226974276664;-2340.6040379085293;2423.188176666016;627.226974276664;-2340.6040379085293;-74.99853801074568
182272.435653;585.4593797021648;-2278.1517833703883;2352.177338840532;585.4593797021648;-2278.1517833703883;-75.5875092253822
186091.333056;543.1158699680465;-2216.279534010747;2281.856660942146;543.1158699680465;-2216.279534010747;-76.23059267000768
189990.242434;505.68917331889014;-2155.4095589944577;2213.9358407633736;505.68917331889014;-2155.4095589944577;-76.79641147444472
193970.840164;474.39587666131814;-2098.484665564358;2151.438899760348;474.39587666131814;-2098.484665564358;-77.26149963992083
198034.837746;441.699425283616;-2038.5333362729104;2085.837132997646;441.699425283616;-2038.5333362729104;-77.77441550709017
202183.982541;417.56594989015014;-1985.321746227095;2028.759167212773;417.56594989015014;-1985.321746227095;-78.12230026700702
206420.058519;392.38077832406816;-1931.3179297740041;1970.7743709173678;392.38077832406816;-1931.3179297740041;-78.51567741036718
210744.887025;366.7372450104688;-1877.1355786511208;1912.6249469030113;366.7372450104688;-1877.1355786511208;-78.94533230679738
215160.327566;349.7214037450771;-1827.1658829710054;1860.3333637094834;349.7214037450771;-1827.1658829710054;-79.16457749845401
219668.278608;329.0266906086709;-1778.1788133477226;1808.3634743523241;329.0266906086709;-1778.1788133477226;-79.51680007451887
224270.678394;312.3914722989264;-1732.7829519963518;1760.717237575154;312.3914722989264;-1732.7829519963518;-79.78031598535219
228969.505775;296.439011582114;-1687.9774694745383;1713.8097983852954;296.439011582114;-1687.9774694745383;-80.03940858306939
233766.781062;280.2065379034746;-1644.1787735136215;1667.8847511613649;280.2065379034746;-1644.1787735136215;-80.3283786575436
238664.566896;267.97330066656355;-1601.0297271357113;1623.3009200522195;267.97330066656355;-1601.0297271357113;-80.49816162756056
243664.969133;255.39535789675952;-1560.273525773268;1581.037717470446;255.39535789675952;-1560.273525773268;-80.70390641521959
248770.137748;243.7917956255844;-1521.4252742261917;1540.8339640170802;243.7917956255844;-1521.4252742261917;-80.89636688027436
253982.267765;234.54904157078278;-1483.80551374039;1502.2290289793216;234.54904157078278;-1483.80551374039;-81.0174289964364
