Frequency (Hz);Trace 1: Impedance: Real (Ω);Trace 1: Impedance: Imaginary (Ω);Trace 1: Impedance: Magnitude (Ω);Trace 2: Impedance: Real (Ω);Trace 2: Impedance: Imaginary (Ω);Trace 2: Impedance: Phase (°)
10000;860.9820394961979;1668.4013243916772;1877.459201039249;860.9820394961979;1668.4013243916772;62.703907697686674
10209.515903;874.605472377798;1694.8010972014768;1907.166875600696;874.605472377798;1694.8010972014768;62.70391372666729
10423.421498;889.3752750235465;1721.511723452633;1937.6767000219784;889.3752750235465;1721.511723452633;62.678011938354075
10641.808756;904.115612023685;1748.8232803066055;1968.707166047637;904.115612023685;1748.8232803066055;62.66170900147773
10864.771573;919.1647053999427;1776.93439293008;2000.5898111383945;919.1647053999427;1776.93439293008;62.64857989934334
11092.405816;934.320840996159;1804.9329412019433;2032.421795827743;934.320840996159;1804.9329412019433;62.63172416313184
11324.809359;950.3571351800182;1833.3915978097386;2065.067416649373;950.3571351800182;1833.3915978097386;62.599576406558796
11562.082126;966.469496881191;1864.377846014401;2099.992390726947;966.469496881191;1864.377846014401;62.59835737576404
11804.326134;983.920062103668;1894.6116667449294;2134.8658169487103;983.920062103668;1894.6116667449294;62.55599923505939
12051.645539;1001.3842042726792;1926.327375273915;2171.0613720704714;1001.3842042726792;1926.327375273915;62.53273385766706
12304.14668;1019.1544944342512;1957.8546013675646;2207.231415964733;1019.1544944342512;1957.8546013675646;62.50092332973072
12561.938121;1037.7305693435305;1990.0595381673284;2244.3755701755463;1037.7305693435305;1990.0595381673284;62.45989392051763
12825.130702;1055.8483890839855;2024.6740070033773;2283.444909641211;1055.8483890839855;2024.6740070033773;62.45838410732833
13093.837587;1075.9937553900334;2059.244357813948;2323.413412810326;1075.9937553900334;2059.244357813948;62.41208913413652
13368.174308;1096.1266432955617;2093.810102683337;2363.3735134847398;1096.1266432955617;2093.810102683337;62.36757625262045
13648.25882;1116.8619894732271;2130.308133871158;2405.326058722125;1116.8619894732271;2130.308133871158;62.333212867638274
13934.211547;1137.9615138398403;2168.083530434554;2448.579711163641;1137.9615138398403;2168.083530434554;62.306376691732346
14226.15544;1160.076957728376;2205.239634768216;2491.758494438211;1160.076957728376;2205.239634768216;62.25316924770822
14524.216021;1182.7342054314456;2244.3887011206534;2536.955033581716;1182.7342054314456;2244.3887011206534;62.211941064832416
14828.521445;1206.977011736866;2285.0314443995753;2584.2140408170653;1206.977011736866;2285.0314443995753;62.1565270165384
15139.202552;1231.2796758964394;2326.5382859978026;2632.267090644343;1231.2796758964394;2326.5382859978026;62.11075208710188
15456.392922;1256.341928771453;2366.7597827501254;2679.542295100526;1256.341928771453;2366.7597827501254;62.03939399054091
15780.228934;1283.2310693057793;2409.5240858689176;2729.924595591259;1283.2310693057793;2409.5240858689176;61.96174413177249
16110.849827;1310.2189831233595;2453.453846549475;2781.3862660344803;1310.2189831233595;2453.453846549475;61.89642690368587
16448.397752;1339.4398072249326;2498.7049122612243;2835.070587434665;1339.4398072249326;2498.7049122612243;61.80630523912067
16793.017844;1368.7736621265042;2545.093695381335;2889.8171666043195;1368.7736621265042;2545.093695381335;61.72824722600347
17144.858275;1399.3913589559877;2591.9681078463086;2945.606023828214;1399.3913589559877;2591.9681078463086;61.63559912314626
17504.070322;1432.2691007721758;2640.8701958496376;3004.2620006173966;1432.2691007721758;2640.8701958496376;61.52692424609869
17870.808433;1464.6283204855276;2691.5623988253756;3064.252643621095;1464.6283204855276;2691.5623988253756;61.446937436589785
18245.23029;1499.2329563395353;2741.3618076169696;3124.5422092901167;1499.2329563395353;2741.3618076169696;61.32603752969107
18627.496881;1535.8615772320634;2794.1111304629503;3188.4052116684775;1535.8615772320634;2794.1111304629503;61.20337015937646
19017.772565;1573.0392612121855;2850.937080113051;3256.116513897883;1573.0392612121855;2850.937080113051;61.11174721736064
19416.225145;1612.6261857736154;2905.3003053511175;3322.850143975207;1612.6261857736154;2905.3003053511175;60.966943436176635
19823.02594;1654.8279486990973;2963.8130297556672;3394.501909727719;1654.8279486990973;2963.8130297556672;60.823444315625764
20238.349859;1698.1279539124978;3021.1387218200553;3465.6770946439256;1698.1279539124978;3021.1387218200553;60.6604391710256
20662.375475;1743.5281694652097;3082.368443315129;3541.3112964075376;1743.5281694652097;3082.368443315129;60.505519861683744
21095.285101;1792.9825737246686;3143.1766936745867;3618.6110923031565;1792.9825737246686;3143.1766936745867;60.297988667482414
21537.264873;1841.6697415734252;3207.701072675983;3698.7962377878807;1841.6697415734252;3207.701072675983;60.138139592537726
21988.504824;1895.2697775694398;3273.5527916650512;3782.6175341403687;1895.2697775694398;3273.5527916650512;59.93069615335138
22449.198969;1953.4035136497052;3342.171147562371;3871.161746393115;1953.4035136497052;3342.171147562371;59.69493469692637
22919.54539;2010.3422894116325;3416.7735216410765;3964.318026947935;2010.3422894116325;3416.7735216410765;59.528531425965575
23399.746316;2071.615852137111;3489.2989557232877;4057.9304381959764;2071.615852137111;3489.2989557232877;59.30216414563242
23890.008215;2136.929929217326;3562.3169380461777;4154.10297049501;2136.929929217326;3562.3169380461777;59.04168666743808
24390.541881;2207.667009604518;3640.3098232478196;4257.422839527539;2207.667009604518;3640.3098232478196;58.7652700188954
24901.562522;2281.636242403267;3717.5914507998796;4361.920464395064;2281.636242403267;3717.5914507998796;58.46087601938621
25423.289859;2359.6531603019157;3798.5411395366714;4471.786871673937;2359.6531603019157;3798.5411395366714;58.15145627843761
25955.948214;2445.2118383269703;3887.293580369692;4592.397229582582;2445.2118383269703;3887.293580369692;57.82900697121053
26499.766608;2531.014413930979;3973.028823534992;4710.73157759665;2531.014413930979;3973.028823534992;57.500862646750704
27054.978862;2625.3397667832014;4066.5576097761377;4840.382183741434;2625.3397667832014;4066.5576097761377;57.1540097239191
27621.823696;2725.5562463002657;4157.307946141295;4971.103118101248;2725.5562463002657;4157.307946141295;56.75090873916132
28200.544831;2836.4317850019884;4249.6126099737485;5109.261454047684;2836.4317850019884;4249.6126099737485;56.27861201300631
28791.391094;2952.556803717192;4347.834573746703;5255.592940843484;2952.556803717192;4347.834573746703;55.8200939607532
29394.616526;3076.201328543742;4454.074178424481;5413.112912238391;3076.201328543742;4454.074178424481;55.369145512767325
30010.48049;3265.737466996513;4514.905506710048;5572.200008781587;3265.737466996513;4514.905506710048;54.12089850673514
30639.247783;3405.630946569518;4635.8396833702145;5752.332719353258;3405.630946569518;4635.8396833702145;53.697847434961425
31281.188751;3565.2525286410323;4729.358532038839;5922.656305877443;3565.2525286410323;4729.358532038839;52.98898849926458
31936.579403;3733.3258798965153;4833.425210407165;6107.349784489557;3733.3258798965153;4833.425210407165;52.31758946765541
32605.701532;3921.2814365544396;4928.853199482285;6298.415829930032;3921.2814365544396;4928.853199482285;51.495055139891896
33288.842834;4130.213069067977;5049.317980026595;6523.363554127561;4130.213069067977;5049.317980026595;50.71771108402489
33986.297032;4336.507301855292;5155.364781126425;6736.696638970986;4336.507301855292;5155.364781126425;49.93066091872031
34698.364005;4565.168047999843;5271.330817849487;6973.355569429142;4565.168047999843;5271.330817849487;49.10622245496409
35425.349913;4842.619045124415;5372.206954773695;7232.673556930421;4842.619045124415;5372.206954773695;47.967843930522704
36167.567333;5122.201314381719;5484.731411561116;7504.613578460853;5122.201314381719;5484.731411561116;46.95752744710895
36925.335387;5424.572225643556;5581.867360978526;7783.522792847777;5424.572225643556;5581.867360978526;45.818769216132345
37698.979888;5725.747371139926;5627.046639715637;8027.941008979252;5725.747371139926;5627.046639715637;44.50188536271218
38488.833471;6095.495675366299;5723.802154269357;8361.637317513107;6095.495675366299;5723.802154269357;43.198754788908104
39295.235743;6402.003451989713;5819.281929569989;8651.571555220937;6402.003451989713;5819.281929569989;42.27015485530544
40118.533425;6893.6638901410015;5848.075483135162;9040.054683832423;6893.6638901410015;5848.075483135162;40.308813692680516
40959.080503;7326.245840374247;5855.647647293681;9378.831882641727;7326.245840374247;5855.647647293681;38.634291431168435
41817.238378;7848.679142855871;5843.4912173792345;9785.098563381414;7848.679142855871;5843.4912173792345;36.66838609917705
42693.376026;8440.837135840116;5773.865893594861;10226.693449546414;8440.837135840116;5773.865893594861;34.37366916331281
43587.870151;9028.38414389543;5626.506300762554;10638.1057243413;9028.38414389543;5626.506300762554;31.93123966484593
44501.105351;9639.34057647293;5432.425470554823;11064.72472510592;9639.34057647293;5432.425470554823;29.404223508058404
45433.47428;10313.147445587585;5142.127084852551;11523.99588646247;10313.147445587585;5142.127084852551;26.500807349025845
46385.377822;10978.123230244963;4873.016200648288;12011.056429399736;10978.123230244963;4873.016200648288;23.935681829613756
47357.225256;11650.310600011337;4451.760677708404;12471.884789731153;11650.310600011337;4451.760677708404;20.91261625414924
48349.43444;12337.07115660609;3814.8595078417115;12913.42238865175;12337.07115660609;3814.8595078417115;17.182613885734433
49362.431984;12955.978558679471;3007.530872627649;13300.474516451306;12955.978558679471;3007.530872627649;13.068868871565316
50396.653437;13497.715551730871;2229.292238936798;13680.572685455141;13497.715551730871;2229.292238936798;9.378348640109918
51452.543475;13813.005871487981;1203.805140738642;13865.362527630865;13813.005871487981;1203.805140738642;4.980749750968057
52530.556088;14134.81085876021;48.890317084547206;14134.895410862797;14134.81085876021;48.890317084547206;0.19817722961601705
53631.15478;14189.114323533828;-1019.1349580428853;14225.666991358186;14189.114323533828;-1019.1349580428853;-4.108221846808255
54754.812765;14076.84509518537;-2227.428643416718;14251.982535610887;14076.84509518537;-2227.428643416718;-8.991563892409468
55902.013172;13905.709952588995;-3295.476294121248;14290.868878086025;13905.709952588995;-3295.476294121248;-13.332406774193965
57073.249251;13347.468384328788;-4290.53969605101;14020.11566122213;13347.468384328788;-4290.53969605101;-17.81998607915093
58269.024589;12731.141428339353;-5127.821918060596;13725.032593466627;12731.141428339353;-5127.821918060596;-21.9384845915716
59489.853323;12302.184643775074;-6231.556370062582;13790.432980976442;12302.184643775074;-6231.556370062582;-26.864066589120018
60736.260359;10959.48721021458;-6696.857561126156;12843.607791616401;10959.48721021458;-6696.857561126156;-31.427255646867124
62008.781606;10449.507729471825;-6919.967586623781;12533.082748797886;10449.507729471825;-6919.967586623781;-33.51368298791049
63307.964196;9699.576636418617;-7328.704871610999;12156.961052044737;9699.576636418617;-7328.704871610999;-37.07358418880985
64634.366728;8862.540927458369;-7657.172081089149;11712.254948142385;8862.540927458369;-7657.172081089149;-40.82678128104004
65988.559502;8144.664776179662;-7747.35726005199;11240.86779707074;8144.664776179662;-7747.35726005199;-43.56787871968686
67371.124768;7484.250287942494;-7830.366809153192;10831.834874039358;7484.250287942494;-7830.366809153192;-46.29468731583482
68782.656976;6829.889104187269;-7765.443309637223;10341.638891910967;6829.889104187269;-7765.443309637223;-48.66761593247011
70223.763028;6284.606843988151;-7755.20740284395;9981.959980115544;6284.606843988151;-7755.20740284395;-50.97964233649064
71695.062543;5764.726846762275;-7635.813828587595;9567.535128894551;5764.726846762275;-7635.813828587595;-52.94868945590657
73197.188124;5227.474555376455;-7551.167216297501;9184.041406461232;5227.474555376455;-7551.167216297501;-55.306162630521484
74730.785624;4813.789723402488;-7471.072512680686;8887.603500993297;4813.789723402488;-7471.072512680686;-57.2053536165794
76296.514431;4381.6569765936065;-7250.1326288097225;8471.324630532277;4381.6569765936065;-7250.1326288097225;-58.853105263437534
77895.047746;4022.4336734121252;-7110.247442194907;8169.185476302947;4022.4336734121252;-7110.247442194907;-60.502141262837206
79527.072877;3695.8626105108615;-6964.160683686433;7884.093763012718;3695.8626105108615;-6964.160683686433;-62.045219849655425
81193.291529;3321.96628137228;-6795.921062485477;7564.390462033813;3321.96628137228;-6795.921062485477;-63.94979828648053
82894.420112;3057.302232311181;-6657.356212584037;7325.809762812996;3057.302232311181;-6657.356212584037;-65.33367665915829
84631.190045;2792.110670543804;-6438.084076382652;7017.464540069756;2792.110670543804;-6438.084076382652;-66.55426950486694
86404.348069;2537.6686953485037;-6276.093541367636;6769.720270982276;2537.6686953485037;-6276.093541367636;-67.98460126181625
88214.656574;2333.566353770928;-6068.062395374887;6501.300882255378;2333.566353770928;-6068.062395374887;-68.96498788212226
90062.893922;2137.870103182991;-5889.575901795817;6265.587991649121;2137.870103182991;-5889.575901795817;-70.0494977608886
91949.854781;1945.0383334641351;-5702.210409104245;6024.813496560847;1945.0383334641351;-5702.210409104245;-71.16536186833119
93876.350471;1787.8350557019808;-5504.930069341518;5787.971082748887;1787.8350557019808;-5504.930069341518;-72.00776847231081
95843.209309;1631.03377117015;-5340.773104890781;5584.275111473487;1631.03377117015;-5340.773104890781;-73.01770484450641
97851.276968;1498.4740217353276;-5177.147722423271;5389.645900577153;1498.4740217353276;-5177.147722423271;-73.85743805022356
99901.416839;1363.3736047561245;-5004.198451816919;5186.597124446101;1363.3736047561245;-5004.198451816919;-74.75988503162425
101994.510399;1257.342933352587;-4845.5820983064295;5006.054047199194;1257.342933352587;-4845.5820983064295;-75.45356952729686
104131.457599;1151.6669410745078;-4690.401516154097;4829.720812418102;1151.6669410745078;-4690.401516154097;-76.20467937319025
106313.177241;1070.2311993112676;-4545.166679975724;4669.468381811872;1070.2311993112676;-4545.166679975724;-76.75016109298335
108540.607379;999.2257070583317;-4410.256477595484;4522.03651155308;999.2257070583317;-4410.256477595484;-77.23410089852915
110814.705721;920.1228253591245;-4260.003594820972;4358.240085359508;920.1228253591245;-4260.003594820972;-77.81185447714165
113136.45004;847.4276552340132;-4132.470623415271;4218.465015173839;847.4276552340132;-4132.470623415271;-78.41126564114262
115506.838595;795.7267371601213;-4012.2405440630146;4090.385705976218;795.7267371601213;-4012.2405440630146;-78.78238837688161
117926.89056;739.5922650096261;-3891.341669091065;3961.0019823355933;739.5922650096261;-3891.341669091065;-79.23866002223548
120397.646462;692.2857857501759;-3775.6305337919302;3838.5733726025965;692.2857857501759;-3775.6305337919302;-79.6098670183061
122920.168629;651.3172996578559;-3664.0084330132313;3721.4475707748024;651.3172996578559;-3664.0084330132313;-79.9203414909237
125495.541648;611.0965121499987;-3553.468240308284;3605.631079581152;611.0965121499987;-3553.468240308284;-80.24218519412142
128124.872827;571.1180031716223;-3459.8095735900833;3506.6305849137198;571.1180031716223;-3459.8095735900833;-80.62659387413389
130809.292676;539.2063304413039;-3360.2834072842325;3403.2701985087388;539.2063304413039;-3360.2834072842325;-80.88377315955691
133549.95539;504.9727013366725;-3264.9272484655658;3303.7474732291794;504.9727013366725;-3264.9272484655658;-81.20796496833027
136348.039347;477.1303639510995;-3178.7143893555203;3214.323965206361;477.1303639510995;-3178.7143893555203;-81.46353694513296
139204.747612;449.8454375553578;-3093.339779457443;3125.8777821378735;449.8454375553578;-3093.339779457443;-81.7258284196907
142121.308459;422.36872781494935;-3008.331635536721;3037.8371535694705;422.36872781494935;-3008.331635536721;-82.00793240247009
145098.975893;401.9389601464186;-2922.587243303721;2950.0967988195284;401.9389601464186;-2922.587243303721;-82.16932239658773
148139.030196;378.2362918323862;-2848.6619221595365;2873.662721897053;378.2362918323862;-2848.6619221595365;-82.4366874131806
151242.778471;358.7558644892832;-2775.820023021736;2798.9073886989977;358.7558644892832;-2775.820023021736;-82.63573276319721
154411.555209;337.7649011530949;-2699.790797603758;2720.837275413011;337.7649011530949;-2699.790797603758;-82.86890197699152
157646.722859;321.8235869204734;-2627.4291578144107;2647.0652429495767;321.8235869204734;-2627.4291578144107;-83.01684639707383
160949.672416;300.8160461053171;-2563.829869116026;2581.417031664186;300.8160461053171;-2563.829869116026;-83.3080403716545
164321.824019;290.4601576308451;-2494.0174874247746;2510.874415567517;290.4601576308451;-2494.0174874247746;-83.35710138800296
167764.627562;274.2465896132349;-2431.29446217923;2446.712887475333;274.2465896132349;-2431.29446217923;-83.56431964421556
171279.563313;263.4288002750396;-2369.8996033932776;2384.4955154031977;263.4288002750396;-2369.8996033932776;-83.6572619573136
174868.142559;250.63263052284051;-2309.0684078111112;2322.630755723806;250.63263052284051;-2309.0684078111112;-83.8052107013622
178531.908247;241.459713020344;-2251.233361631014;2264.145410863079;241.459713020344;-2251.233361631014;-83.87805155544001
182272.435653;227.464818743666;-2196.650418846103;2208.396093635118;227.464818743666;-2196.650418846103;-84.0880492525996
186091.333056;217.22487273184743;-2142.6811869149024;2153.6641600055527;217.22487273184743;-2142.6811869149024;-84.21113614793441
189990.242434;209.10932283285007;-2087.380263457141;2097.8281800867335;209.10932283285007;-2087.380263457141;-84.27931635816967
193970.840164;200.2955937260724;-2036.1552593979193;2045.9830315131862;200.2955937260724;-2036.1552593979193;-84.38191699927529
198034.837746;193.62851433289188;-1985.5962144646585;1995.014869232594;193.62851433289188;-1985.5962144646585;-84.43032298446609
202183.982541;189.69746722017004;-1936.2880843168412;1945.558190992274;189.69746722017004;-1936.2880843168412;-84.40460852651157
206420.058519;182.49893041771327;-1891.1366952863536;1899.9220667864774;182.49893041771327;-1891.1366952863536;-84.48789737237405
210744.887025;178.53231347508418;-1842.920524706524;1851.54795977294;178.53231347508418;-1842.920524706524;-84.46675657012545
215160.327566;173.54465855154902;-1799.0834615769343;1807.4343833819853;173.54465855154902;-1799.0834615769343;-84.49013541190912
219668.278608;168.948771107721;-1757.9167700207329;1766.0167206396816;168.948771107721;-1757.9167700207329;-84.51031350645061
224270.678394;166.90891855317994;-1717.7885782061605;1725.878381146289;166.90891855317994;-1717.7885782061605;-84.45027716284686
228969.505775;161.11266189720115;-1676.9667390708198;1684.688319474383;161.11266189720115;-1676.9667390708198;-84.51221656038449
233766.781062;158.71573479987225;-1638.6362062838116;1646.304741236344;158.71573479987225;-1638.6362062838116;-84.46767811827284
238664.566896;155.71059070674158;-1602.0646390092772;1609.6138964429226;155.71059070674158;-1602.0646390092772;-84.44864784383152
243664.969133;153.79175150711384;-1566.743435704556;1574.273450247746;153.79175150711384;-1566.743435704556;-84.39379837767054
248770.137748;150.97069977361906;-1532.380802328401;1539.799686821234;150.97069977361906;-1532.380802328401;-84.37335716655481
253982.267765;148.97412368254794;-1500.2512613848935;1507.6296417933509;148.97412368254794;-1500.2512613848935;-84.3291508139476
