Frequency (Hz);Trace 1: Impedance: Real (Ω);Trace 1: Impedance: Imaginary (Ω);Trace 1: Impedance: Magnitude (Ω);Trace 2: Impedance: Real (Ω);Trace 2: Impedance: Imaginary (Ω);Trace 2: Impedance: Phase (°)
10000;599.9687594032009;1103.6483858353508;1256.1856040477423;599.9687594032009;1103.6483858353508;61.47047526290745
10209.515903;609.2253402570734;1120.1945182938841;1275.1436287834456;609.2253402570734;1120.1945182938841;61.460143391016466
10423.421498;618.5416315844841;1136.850399696968;1294.2266344401785;618.5416315844841;1136.850399696968;61.450114316906564
10641.808756;628.514372991537;1153.7561158642404;1313.8430240904288;628.514372991537;1153.7561158642404;61.42044139996176
10864.771573;637.984168952493;1171.400521364469;1333.8676775778597;637.984168952493;1171.400521364469;61.42580082373201
11092.405816;647.9608764966403;1188.9279829101804;1354.0321436425224;647.9608764966403;1188.9279829101804;61.409797040642154
11324.809359;658.518859602133;1207.194443202017;1375.1238170250424;658.518859602133;1207.194443202017;61.387742023024735
11562.082126;668.9303072839823;1225.944114756258;1396.5696289510765;668.9303072839823;1225.944114756258;61.381129827013744
11804.326134;679.5413085892384;1244.8783607390556;1418.273077765891;679.5413085892384;1244.8783607390556;61.37121362011361
12051.645539;690.7582718134383;1264.4622955228883;1440.8372173419523;690.7582718134383;1264.4622955228883;61.352830130377214
12304.14668;702.3605423418614;1283.7550213567904;1463.3308874952127;702.3605423418614;1283.7550213567904;61.31630665284825
12561.938121;713.7820973265148;1304.043496303492;1486.6116919744961;713.7820973265148;1304.043496303492;61.30543817004828
12825.130702;725.3765220542723;1324.7684754542158;1510.3584383532407;725.3765220542723;1324.7684754542158;61.29710618849402
13093.837587;738.0342246192897;1345.6514395657944;1534.754805666003;738.0342246192897;1345.6514395657944;61.25705123054552
13368.174308;750.5070880033147;1367.2914795325805;1559.7265398606282;750.5070880033147;1367.2914795325805;61.237591124911134
13648.25882;763.2516975187574;1389.4165186053042;1585.2543694746748;763.2516975187574;1389.4165186053042;61.218575730769544
13934.211547;776.5524752795584;1411.684554655142;1611.1756666219533;776.5524752795584;1411.684554655142;61.185281084433996
14226.15544;790.334275661342;1434.6032803246526;1637.8995204845114;790.334275661342;1434.6032803246526;61.14928402916386
14524.216021;804.2735037038626;1457.961882927147;1665.085199270163;804.2735037038626;1457.961882927147;61.11701136430604
14828.521445;818.9603708115922;1482.0214791134497;1693.246512919332;818.9603708115922;1482.0214791134497;61.075099379696695
15139.202552;833.8385219374425;1506.5283122162634;1721.8926320116484;833.8385219374425;1506.5283122162634;61.036196924137876
15456.392922;848.9025499558877;1531.6581155357228;1751.174497932188;848.9025499558877;1531.6581155357228;61.00313082243281
15780.228934;864.9855963239835;1557.2282230435849;1781.3365264574343;864.9855963239835;1557.2282230435849;60.94936583472428
16110.849827;881.0910512510337;1583.01847085167;1811.703319987081;881.0910512510337;1583.01847085167;60.90015824354959
16448.397752;898.0215019390195;1610.4039380541046;1843.8664435487135;898.0215019390195;1610.4039380541046;60.85432684790869
16793.017844;915.3560324108989;1637.711732995941;1876.1600108902203;915.3560324108989;1637.711732995941;60.79813708624381
17144.858275;933.6537324952081;1665.608421639607;1909.4398933820924;933.6537324952081;1665.608421639607;60.7272700448436
17504.070322;951.9799119110593;1693.9633048106105;1943.135978444914;951.9799119110593;1693.9633048106105;60.664719299141865
17870.808433;971.3354014922389;1723.7736347923908;1978.6075927776735;971.3354014922389;1723.7736347923908;60.59901922524282
18245.23029;991.1393730960799;1753.2261317006135;2013.9908455053085;991.1393730960799;1753.2261317006135;60.519517483705584
18627.496881;1011.4445475868462;1784.0835182329947;2050.8471598034266;1011.4445475868462;1784.0835182329947;60.44994233654884
19017.772565;1032.5460914216728;1816.3518578487065;2089.32656672446;1032.5460914216728;1816.3518578487065;60.38296028397858
19416.225145;1055.531042978542;1847.538477495286;2127.8026714234966;1055.531042978542;1847.538477495286;60.259916846501504
19823.02594;1078.0171975911587;1880.6958718344786;2167.7495336494812;1078.0171975911587;1880.6958718344786;60.17861189753202
20238.349859;1102.72118754543;1914.8623946846174;2209.681426821276;1102.72118754543;1914.8623946846174;60.063439880032625
20662.375475;1127.9894432670603;1948.5002479376474;2251.446957033411;1127.9894432670603;1948.5002479376474;59.93339155419651
21095.285101;1153.5014051837234;1984.6056840994868;2295.479299214179;1153.5014051837234;1984.6056840994868;59.83379737305537
21537.264873;1181.5353515229683;2020.868965972538;2340.926561114086;1181.5353515229683;2020.868965972538;59.68658370379597
21988.504824;1209.1707768600172;2057.595031057594;2386.585694972037;1209.1707768600172;2057.595031057594;59.55885691374016
22449.198969;1239.68279065339;2095.588288619055;2434.8108133568644;1239.68279065339;2095.588288619055;59.392802789695246
22919.54539;1269.6626419131615;2136.4987213944964;2485.2907296310887;1269.6626419131615;2136.4987213944964;59.278144493788105
23399.746316;1301.4028360438847;2177.1098459250816;2536.4259545445043;1301.4028360438847;2177.1098459250816;59.13044150245693
23890.008215;1335.2909891537606;2217.392425170323;2588.403212970876;1335.2909891537606;2217.392425170323;58.94408007822112
24390.541881;1370.8571398926574;2259.391887876106;2642.744974641903;1370.8571398926574;2259.391887876106;58.75325312827538
24901.562522;1407.072824518648;2304.307673791829;2699.942182528136;1407.072824518648;2304.307673791829;58.590627940863016
25423.289859;1446.8550054294847;2349.1610703568817;2758.9757413244224;1446.8550054294847;2349.1610703568817;58.37096587654688
25955.948214;1488.1265822016678;2394.1186310482894;2818.922621177771;1488.1265822016678;2394.1186310482894;58.13590945875003
26499.766608;1529.9096904677108;2441.486301703973;2881.2287348274085;1529.9096904677108;2441.486301703973;57.92748857840868
27054.978862;1575.2974850272094;2490.13515749436;2946.580266838579;1575.2974850272094;2490.13515749436;57.6819305258837
27621.823696;1623.072983165713;2539.1960059429057;3013.616144315472;1623.072983165713;2539.1960059429057;57.412983505213596
28200.544831;1674.0906116061024;2589.916920185185;3083.869165403942;1674.0906116061024;2589.916920185185;57.12186707110676
28791.391094;1727.0552145256256;2642.6964134415853;3156.9865453684106;1727.0552145256256;2642.6964134415853;56.834577180855895
29394.616526;1782.6269424952816;2695.9780122621623;3232.035930912761;1782.6269424952816;2695.9780122621623;56.52663804391893
30010.48049;1862.5480075037112;2742.6267778450806;3315.2807909450044;1862.5480075037112;2742.6267778450806;55.81914273643298
30639.247783;1922.8654999103537;2796.5189043449727;3393.807553928817;1922.8654999103537;2796.5189043449727;55.48787727830981
31281.188751;1991.0295424584522;2849.8955084750282;3476.507305927668;1991.0295424584522;2849.8955084750282;55.06059991146546
31936.579403;2066.3291221863483;2907.5146787918147;3566.981587923503;2066.3291221863483;2907.5146787918147;54.59913596677762
32605.701532;2143.8232271009774;2969.2982998069674;3662.336743432285;2143.8232271009774;2969.2982998069674;54.17084435359895
33288.842834;2227.3005073637605;3032.411009492198;3762.4970538981634;2227.3005073637605;3032.411009492198;53.70278384161284
33986.297032;2312.2387480273787;3093.229847723259;3861.9320189155683;2312.2387480273787;3093.229847723259;53.22129820099613
34698.364005;2405.687138568086;3160.3599140782107;3971.801278410633;2405.687138568086;3160.3599140782107;52.72136620161209
35425.349913;2512.3713685233192;3221.6585356230685;4085.4734870671614;2512.3713685233192;3221.6585356230685;52.05154468755591
36167.567333;2624.7516401897965;3280.966623912311;4201.673852157683;2624.7516401897965;3280.966623912311;51.340422375788116
36925.335387;2730.562467095749;3345.879069494639;4318.666244848558;2730.562467095749;3345.879069494639;50.782212658841715
37698.979888;2841.519902760128;3410.495396686139;4439.111871602165;2841.519902760128;3410.495396686139;50.19997754451723
38488.833471;2985.9079548198856;3481.392368053107;4586.473496597914;2985.9079548198856;3481.392368053107;49.38108855890876
39295.235743;3099.147651518403;3536.0832609703525;4701.978412798889;3099.147651518403;3536.0832609703525;48.767536419185
40118.533425;3275.265370388636;3594.0722790474424;4862.58355131141;3275.265370388636;3594.0722790474424;47.65719835107984
40959.080503;3441.611176957007;3660.2222582276613;5024.133206134228;3441.611176957007;3660.2222582276613;46.76314165707981
41817.238378;3623.889628403896;3716.065422540497;5190.54123030098;3623.889628403896;3716.065422540497;45.71948756329487
42693.376026;3812.8822118561725;3770.2800418953966;5362.190070838964;3812.8822118561725;3770.2800418953966;44.67811596592417
43587.870151;4030.446872063941;3806.780504812113;5544.012968991647;4030.446872063941;3806.780504812113;43.365281399584305
44501.105351;4245.9033799104855;3842.134817123943;5726.228729669408;4245.9033799104855;3842.134817123943;42.14207024249631
45433.47428;4504.948328328891;3867.8699624629953;5937.5902087830855;4504.948328328891;3867.8699624629953;40.64881247780178
46385.377822;4761.277095257406;3891.80842172304;6149.46602309641;4761.277095257406;3891.80842172304;39.26213494919397
47357.225256;5050.492442865872;3880.995530326674;6369.426993212254;5050.492442865872;3880.995530326674;37.54008161008425
48349.43444;5343.7334549521465;3860.6917021415866;6592.452324936427;5343.7334549521465;3860.6917021415866;35.84701424456992
49362.431984;5690.341636030268;3811.414733262924;6848.859043933765;5690.341636030268;3811.414733262924;33.814341778456665
50396.653437;5997.6416333345205;3704.081151722403;7049.249771461694;5997.6416333345205;3704.081151722403;31.699046939616284
51452.543475;6342.028803968208;3574.404008319293;7279.951467218133;6342.028803968208;3574.404008319293;29.40585863615706
52530.556088;6716.063584174718;3429.061418155487;7540.820398084035;6716.063584174718;3429.061418155487;27.047769400927137
53631.15478;7057.447160035548;3193.93058744398;7746.531676441017;7057.447160035548;3193.93058744398;24.349688156356752
54754.812765;7408.133134717953;2903.553382692328;7956.824667406597;7408.133134717953;2903.553382692328;21.402264428371776
55902.013172;7791.724169655645;2639.544722101164;8226.673803911764;7791.724169655645;2639.544722101164;18.7144578961441
57073.249251;8047.57409551411;2238.3122626701434;8353.052771772085;8047.57409551411;2238.3122626701434;15.543112027384117
58269.024589;8323.698249463398;1800.4682795837114;8516.198598782625;8323.698249463398;1800.4682795837114;12.205398940306361
59489.853323;8694.181040917334;1408.1322635981528;8807.475259348304;8694.181040917334;1408.1322635981528;9.199885717691869
60736.260359;8713.366918393704;688.6010834756288;8740.533994369085;8713.366918393704;688.6010834756288;4.518586998686999
62008.781606;8757.891235372637;365.29127648507034;8765.506066810573;8757.891235372637;365.29127648507034;2.388420143619356
63307.964196;8806.98909138221;-156.5758581041372;8808.380830496957;8806.98909138221;-156.5758581041372;-1.018530934391697
64634.366728;8778.62356462916;-714.612994776324;8807.661631884232;8778.62356462916;-714.612994776324;-4.653830527210868
65988.559502;8693.249488178444;-1188.78777079083;8774.155402527163;8693.249488178444;-1188.78777079083;-7.786806571599523
67371.124768;8577.247439329381;-1628.2504637786888;8730.42800830967;8577.247439329381;-1628.2504637786888;-10.74876951701201
68782.656976;8375.918227706545;-2061.4952977141243;8625.877869511263;8375.918227706545;-2061.4952977141243;-13.826914760524765
70223.763028;8195.534773280378;-2471.125200951849;8559.979554813619;8195.534773280378;-2471.125200951849;-16.779157895584863
71695.062543;8003.802959477617;-2825.909539652867;8488.028424813607;8003.802959477617;-2825.909539652867;-19.446641480407283
73197.188124;7719.828938125222;-3173.4575094648926;8346.651508137542;7719.828938125222;-3173.4575094648926;-22.346521477125314
74730.785624;7466.835295715978;-3518.083997979969;8254.122869826486;7466.835295715978;-3518.083997979969;-25.228000045475117
76296.514431;7157.77348970873;-3845.7941147208585;8125.506365931829;7157.77348970873;-3845.7941147208585;-28.24865637090936
77895.047746;6850.403806038025;-4148.52386908071;8008.637998942932;6850.403806038025;-4148.52386908071;-31.198603872855898
79527.072877;6529.959231225544;-4378.961878093859;7862.294492784343;6529.959231225544;-4378.961878093859;-33.84563102809257
81193.291529;6151.72294437877;-4653.4823361011095;7713.533109853179;6151.72294437877;-4653.4823361011095;-37.10575150966867
82894.420112;5795.5778399106275;-4833.693361408074;7546.741946733281;5795.5778399106275;-4833.693361408074;-39.829164210323
84631.190045;5412.545898410951;-4936.817403152115;7325.832319570985;5412.545898410951;-4936.817403152115;-42.368141336415825
86404.348069;5025.847860776905;-5028.805677687266;7109.714007160588;5025.847860776905;-5028.805677687266;-45.01685492394137
88214.656574;4646.319108712193;-5103.930301481005;6902.056634247509;4646.319108712193;-5103.930301481005;-47.68710706920258
90062.893922;4272.988494037984;-5091.975373822944;6647.3035042639885;4272.988494037984;-5091.975373822944;-49.99792779025713
91949.854781;3919.00261779628;-5064.298310562226;6403.569231034949;3919.00261779628;-5064.298310562226;-52.26553664387189
93876.350471;3611.6788787716;-5002.213714974881;6169.7946784028145;3611.6788787716;-5002.213714974881;-54.170108994821575
95843.209309;3305.5046378145453;-4936.501815659316;5940.994116023108;3305.5046378145453;-4936.501815659316;-56.19355095215323
97851.276968;3032.1292023111496;-4873.400192982514;5739.672197997901;3032.1292023111496;-4873.400192982514;-58.110977025176844
99901.416839;2759.984034189477;-4751.235438321338;5494.701999138932;2759.984034189477;-4751.235438321338;-59.84777384735196
101994.510399;2528.1490400860844;-4634.2012521788665;5278.954329655104;2528.1490400860844;-4634.2012521788665;-61.38570133868784
104131.457599;2313.324153232498;-4521.258660930155;5078.705397733244;2313.324153232498;-4521.258660930155;-62.90322173315351
106313.177241;2146.175929959139;-4384.613345922615;4881.690825480316;2146.175929959139;-4384.613345922615;-63.91922485565586
108540.607379;1966.4969309256915;-4269.925873582346;4700.997462797456;1966.4969309256915;-4269.925873582346;-65.27175901838267
110814.705721;1817.2180347025;-4144.5014650144985;4525.392113304143;1817.2180347025;-4144.5014650144985;-66.32424029391254
113136.45004;1680.1231561073805;-4006.352100584901;4344.383842796268;1680.1231561073805;-4006.352100584901;-67.24853695525132
115506.838595;1558.5650416290082;-3890.8521544373866;4191.402566764266;1558.5650416290082;-3890.8521544373866;-68.17036094883765
117926.89056;1450.2613813429152;-3762.381681557655;4032.217007049009;1450.2613813429152;-3762.381681557655;-68.92016205813204
120397.646462;1353.246764097168;-3645.545488732368;3888.6088405696423;1353.246764097168;-3645.545488732368;-69.63479400714556
122920.168629;1265.4638651951125;-3531.8992952884873;3751.761109955412;1265.4638651951125;-3531.8992952884873;-70.28762306486956
125495.541648;1188.188044383031;-3421.2731933724667;3621.72625863742;1188.188044383031;-3421.2731933724667;-70.8481866798787
128124.872827;1120.1863746068052;-3311.106418448734;3495.46037427792;1120.1863746068052;-3311.106418448734;-71.30871508845493
130809.292676;1062.3157500315037;-3213.3784217322864;3384.4224963824586;1062.3157500315037;-3213.3784217322864;-71.70655068045978
133549.95539;1004.124213207296;-3113.6754519722094;3271.580696813624;1004.124213207296;-3113.6754519722094;-72.12609067589658
136348.039347;953.5846265793085;-3019.5736175502025;3166.5673010143987;953.5846265793085;-3019.5736175502025;-72.47382664338642
139204.747612;910.3590091213274;-2927.5571701397453;3065.83504284314;910.3590091213274;-2927.5571701397453;-72.72629187062326
142121.308459;874.0279523233573;-2847.71992976206;2978.8309216547677;874.0279523233573;-2847.71992976206;-72.93759699115675
145098.975893;838.0206387280576;-2767.1886878946666;2891.299331675361;838.0206387280576;-2767.1886878946666;-73.15148934808961
148139.030196;805.5439712430514;-2691.281133231926;2809.251720244404;805.5439712430514;-2691.281133231926;-73.33670781121027
151242.778471;779.3659296314905;-2617.506042207909;2731.071059724604;779.3659296314905;-2617.506042207909;-73.41902950294988
154411.555209;756.1524198557178;-2551.2883934942074;2660.9845825994394;756.1524198557178;-2551.2883934942074;-73.49119758159385
157646.722859;732.8768045246676;-2486.235135553881;2592.001844110631;732.8768045246676;-2486.235135553881;-73.5758679278118
160949.672416;712.309828896711;-2428.6517655854327;2530.9552921424947;712.309828896711;-2428.6517655854327;-73.65388535620005
164321.824019;689.7060255213357;-2374.4085025904405;2472.551341997617;689.7060255213357;-2374.4085025904405;-73.8027462715104
167764.627562;674.3050522314476;-2323.7496193432116;2419.607322865133;674.3050522314476;-2323.7496193432116;-73.81834218555434
171279.563313;653.394756590366;-2275.3426520327175;2367.299915958911;653.394756590366;-2275.3426520327175;-73.97788039449618
174868.142559;635.4573186142342;-2230.2526595363574;2319.0155086047585;635.4573186142342;-2230.2526595363574;-74.09636121920023
178531.908247;614.2796762917399;-2187.424778521163;2272.0402026358256;614.2796762917399;-2187.424778521163;-74.31402476628324
182272.435653;593.3449182071375;-2149.4489002422056;2229.8405249512043;593.3449182071375;-2149.4489002422056;-74.56809182723667
186091.333056;568.5476162270592;-2111.532854634861;2186.736698397847;568.5476162270592;-2111.532854634861;-74.93004436844792
189990.242434;548.0525228970054;-2072.3519789146135;2143.596112229421;548.0525228970054;-2072.3519789146135;-75.18672980293434
193970.840164;521.9782536758764;-2035.1068281246187;2100.9809849662997;521.9782536758764;-2035.1068281246187;-75.61448471344652
198034.837746;496.7212793026125;-1993.520123123974;2054.471832518579;496.7212793026125;-1993.520123123974;-76.00863513605753
202183.982541;476.1886100769379;-1956.6954612302347;2013.8055319136472;476.1886100769379;-1956.6954612302347;-76.3221779522844
206420.058519;451.78230702185806;-1917.2357112731438;1969.746183019282;451.78230702185806;-1917.2357112731438;-76.74056526752624
210744.887025;426.90441194086867;-1878.4880226248033;1926.3864171238915;426.90441194086867;-1878.4880226248033;-77.19644984811384
215160.327566;407.6406651313064;-1838.7264298197342;1883.3708598112903;407.6406651313064;-1838.7264298197342;-77.4998565575673
219668.278608;384.85663422912944;-1800.14650870577;1840.8264670293468;384.85663422912944;-1800.14650870577;-77.93230027162627
224270.678394;364.6488748809909;-1760.5469137771076;1797.9138571027454;364.6488748809909;-1760.5469137771076;-78.29821701656972
228969.505775;345.5882042356134;-1722.3902907758577;1756.7183953797887;345.5882042356134;-1722.3902907758577;-78.6545629793417
233766.781062;327.8769726911044;-1683.158453815248;1714.7961073756903;327.8769726911044;-1683.158453815248;-78.9769060327336
238664.566896;310.5918566264164;-1645.433493415542;1674.4905740721022;310.5918566264164;-1645.433493415542;-79.31062551825548
243664.969133;295.9000765395364;-1607.437518945498;1634.4455428706583;295.9000765395364;-1607.437518945498;-79.56965530637794
248770.137748;281.715898672048;-1570.8677728956077;1595.92901079171;281.715898672048;-1570.8677728956077;-79.83278360179622
253982.267765;268.0665365538133;-1533.1894049521688;1556.447692496456;268.0665365538133;-1533.1894049521688;-80.08251544810977
259303.600195;256.38749028607293;-1497.866549404047;1519.650862862512;256.38749028607293;-1497.866549404047;-80.28690064494654
