Frequency (Hz);Trace 1: Impedance: Real (Ω);Trace 1: Impedance: Imaginary (Ω);Trace 1: Impedance: Magnitude (Ω);Trace 2: Impedance: Real (Ω);Trace 2: Impedance: Imaginary (Ω);Trace 2: Impedance: Phase (°)
10000;610.1657619905628;1172.4748414274563;1321.741090715524;610.1657619905628;1172.4748414274563;62.50715215508672
10209.515903;619.8793813957423;1190.6527796763937;1342.3503600888596;619.8793813957423;1190.6527796763937;62.49754756536133
10423.421498;629.9413978874513;1208.7901383252906;1363.084650080424;629.9413978874513;1208.7901383252906;62.474457078580464
10641.808756;640.087699261325;1227.4897815155684;1384.3566832542813;640.087699261325;1227.4897815155684;62.459728666433534
10864.771573;650.5885134617516;1246.5628563351434;1406.1238809730826;650.5885134617516;1246.5628563351434;62.43967809831323
11092.405816;661.0016125983102;1266.2207428428744;1428.369035460769;661.0016125983102;1266.2207428428744;62.43421835707335
11324.809359;671.943654067128;1286.2096333531074;1451.1524713728118;671.943654067128;1286.2096333531074;62.416462502401146
11562.082126;683.2494162478757;1306.8493173862155;1474.681288670837;683.2494162478757;1306.8493173862155;62.39844700931716
11804.326134;694.8338255674786;1327.345552772803;1498.2123553149852;694.8338255674786;1327.345552772803;62.36901221851007
12051.645539;706.5101458262245;1348.863082642269;1522.691105205057;706.5101458262245;1348.863082642269;62.3552640275834
12304.14668;718.4378060991482;1370.781889710658;1547.642035611362;718.4378060991482;1370.781889710658;62.34060514929628
12561.938121;731.1078011358616;1392.9818574973642;1573.1869158490103;731.1078011358616;1392.9818574973642;62.30722392565055
12825.130702;743.6840656910622;1415.9199187915203;1599.3421166196347;743.6840656910622;1415.9199187915203;62.29018335570807
13093.837587;756.421212172293;1439.331470224435;1625.9914302980305;756.421212172293;1439.331470224435;62.276435504166116
13368.174308;770.1885723969687;1463.111375027593;1653.4465013377405;770.1885723969687;1463.111375027593;62.23747442811493
13648.25882;784.053613818607;1487.437543012658;1681.4310909774297;784.053613818607;1487.437543012658;62.20552324879678
13934.211547;798.0227937452671;1512.3779567401114;1710.0080302064068;798.0227937452671;1512.3779567401114;62.18113915638053
14226.15544;812.9796082650865;1537.9269520574474;1739.5847646261918;812.9796082650865;1537.9269520574474;62.13815483610731
14524.216021;827.8819376206384;1563.8174579058343;1769.438765340459;827.8819376206384;1563.8174579058343;62.103342030821736
14828.521445;843.4338562086663;1591.0177396681515;1800.7548744173303;843.4338562086663;1591.0177396681515;62.070943553731105
15139.202552;859.8162744019209;1618.5346819058032;1832.740718775659;859.8162744019209;1618.5346819058032;62.02136146189655
15456.392922;876.6738914929196;1646.1308179701136;1865.0211210322245;876.6738914929196;1646.1308179701136;61.96173684800597
15780.228934;893.8189559220543;1675.1659511525838;1898.708321429738;893.8189559220543;1675.1659511525838;61.91693945271289
16110.849827;911.6672786967991;1703.6054482548548;1932.2030820723921;911.6672786967991;1703.6054482548548;61.84698643585423
16448.397752;929.8287942553968;1734.0927858375758;1967.6532663354003;929.8287942553968;1734.0927858375758;61.799579119053746
16793.017844;949.2336792044954;1764.7204915366674;2003.8171051734037;949.2336792044954;1764.7204915366674;61.724430691233856
17144.858275;968.6787327331527;1796.4015022917158;2040.9303870258386;968.6787327331527;1796.4015022917158;61.66499487108018
17504.070322;989.5809860159553;1828.366656130985;2078.988974750927;989.5809860159553;1828.366656130985;61.57607682106719
17870.808433;1010.3959381784947;1861.0030316147245;2117.6005845217355;1010.3959381784947;1861.0030316147245;61.50110009081846
18245.23029;1032.0567776479918;1895.4032650554398;2158.169300465554;1032.0567776479918;1895.4032650554398;61.43148180277816
18627.496881;1055.2656926365746;1929.2426113582574;2198.9912995589993;1055.2656926365746;1929.2426113582574;61.32202679109724
19017.772565;1079.3495897249563;1965.6353584298474;2242.4803007270916;1079.3495897249563;1965.6353584298474;61.228381150566776
19416.225145;1104.2143012360007;2001.9968781537586;2286.3247195425906;1104.2143012360007;2001.9968781537586;61.12078422773899
19823.02594;1131.2776049506872;2038.9760039536557;2331.7830439733843;1131.2776049506872;2038.9760039536557;60.97733251143072
20238.349859;1157.597835400624;2077.840822601243;2378.540567783619;1157.597835400624;2077.840822601243;60.87713201179856
20662.375475;1186.2388660358722;2117.3627970818347;2427.0121264139334;1186.2388660358722;2117.3627970818347;60.74055142681379
21095.285101;1215.3352843637385;2156.898541117858;2475.73245123455;1215.3352843637385;2156.898541117858;60.60029403415207
21537.264873;1246.4569773564417;2198.308891269312;2527.096550952153;1246.4569773564417;2198.308891269312;60.44645101423048
21988.504824;1279.4393225310253;2242.0859263416805;2581.455845281511;1279.4393225310253;2242.0859263416805;60.28889335578659
22449.198969;1314.243375290929;2284.3613511800945;2635.4397037802705;1314.243375290929;2284.3613511800945;60.08723435557744
22919.54539;1347.764979707078;2332.868092323277;2694.205629996505;1347.764979707078;2332.868092323277;59.98373841470093
23399.746316;1385.4249404079603;2377.8341843589833;2751.9988506194095;1385.4249404079603;2377.8341843589833;59.77314589147019
23890.008215;1424.3416941494197;2426.116378181376;2813.3236468938935;1424.3416941494197;2426.116378181376;59.58335339139155
24390.541881;1465.6097298345433;2474.581405852186;2876.032860447715;1465.6097298345433;2474.581405852186;59.363195102789255
24901.562522;1509.3471612552905;2524.5622511174884;2941.3506103415834;1509.3471612552905;2524.5622511174884;59.12627830606463
25423.289859;1555.3871552743599;2577.4353344605465;3010.38238536539;1555.3871552743599;2577.4353344605465;58.890567921611165
25955.948214;1603.1695081241644;2630.2025131269684;3080.2788399491524;1603.1695081241644;2630.2025131269684;58.63672236487965
26499.766608;1653.7786325372583;2684.80006139244;3153.273717121566;1653.7786325372583;2684.80006139244;58.36783116667589
27054.978862;1707.858676479822;2740.8149497693075;3229.372670923308;1707.858676479822;2740.8149497693075;58.07210989757882
27621.823696;1765.0246766991356;2800.7956137997417;3310.5540593134497;1765.0246766991356;2800.7956137997417;57.781407381453896
28200.544831;1824.9973156207434;2858.749359370829;3391.616591203381;1824.9973156207434;2858.749359370829;57.4462417335694
28791.391094;1891.150524306839;2920.326162986318;3479.1888715343443;1891.150524306839;2920.326162986318;57.07363467065589
29394.616526;1957.8463901573552;2984.740527998437;3569.5711937050055;1957.8463901573552;2984.740527998437;56.73704979097428
30010.48049;2053.8096007189856;3040.4154957481032;3669.095292138195;2053.8096007189856;3040.4154957481032;55.960858157242996
30639.247783;2136.1699672095497;3099.1252188645717;3764.013715571508;2136.1699672095497;3099.1252188645717;55.422219254661705
31281.188751;2218.5987038170992;3165.4540543513053;3865.5244894823823;2218.5987038170992;3165.4540543513053;54.97421212942771
31936.579403;2316.2145964441333;3238.207902460282;3981.3114015782644;2316.2145964441333;3238.207902460282;54.424743495746384
32605.701532;2409.771938260641;3306.2434946562316;4091.2402569862716;2409.771938260641;3306.2434946562316;53.91337814952599
33288.842834;2519.987780387386;3374.5412494684565;4211.63472509973;2519.987780387386;3374.5412494684565;53.24892837569641
33986.297032;2623.862762017399;3453.09702058343;4336.880771644955;2623.862762017399;3453.09702058343;52.77033023996566
34698.364005;2739.1719320864986;3531.0586957297232;4468.941528619386;2739.1719320864986;3531.0586957297232;52.19795314051567
35425.349913;2876.317021125665;3599.2241175112754;4607.343470384213;2876.317021125665;3599.2241175112754;51.369928531884646
36167.567333;3027.1199426348257;3668.386463788048;4756.102857886996;3027.1199426348257;3668.386463788048;50.47085361282648
36925.335387;3173.8033261044807;3732.5431445106533;4899.480164101631;3173.8033261044807;3732.5431445106533;49.62529093762485
37698.979888;3328.6327185700734;3801.499410294763;5052.8401460571295;3328.6327185700734;3801.499410294763;48.79427036004613
38488.833471;3507.9553104514157;3884.4853507176085;5234.02110237091;3507.9553104514157;3884.4853507176085;47.91581033680484
39295.235743;3661.9399259579172;3953.3762802506444;5388.783539406004;3661.9399259579172;3953.3762802506444;47.191626446282356
40118.533425;3907.354894096965;4013.3497379629453;5601.285422796337;3907.354894096965;4013.3497379629453;45.76668617352353
40959.080503;4132.5779984558885;4073.5652235461926;5802.769558047831;4132.5779984558885;4073.5652235461926;44.587976402017944
41817.238378;4376.622370620519;4115.09825825162;6007.400190605042;4376.622370620519;4115.09825825162;43.2359884677661
42693.376026;4623.011054084745;4154.917172488953;6215.751597066387;4623.011054084745;4154.917172488953;41.94752291805554
43587.870151;4929.096883080664;4158.686585985877;6449.082896292649;4929.096883080664;4158.686585985877;40.154377380047215
44501.105351;5256.879444697564;4154.613477301167;6700.417497578511;5256.879444697564;4154.613477301167;38.31999954081992
45433.47428;5585.287498428725;4144.11117393095;6954.789275168842;5585.287498428725;4144.11117393095;36.57427608526878
46385.377822;5949.164428546778;4124.763819885734;7239.2150104638185;5949.164428546778;4124.763819885734;34.73492338592934
47357.225256;6326.507089785201;4035.3417911698275;7503.910669022128;6326.507089785201;4035.3417911698275;32.53163343653326
48349.43444;6725.280392226405;3887.6713615072963;7768.100473677521;6725.280392226405;3887.6713615072963;30.030845240648425
49362.431984;7165.070030101371;3692.707887492184;8060.664989850642;7165.070030101371;3692.707887492184;27.265509411125247
50396.653437;7559.495912696593;3444.343591170999;8307.194546182076;7559.495912696593;3444.343591170999;24.49549892548264
51452.543475;7996.670596113444;3132.283887303557;8588.244463998844;7996.670596113444;3132.283887303557;21.390204206211752
52530.556088;8402.546722917014;2784.7927660773435;8851.997637866842;8402.546722917014;2784.7927660773435;18.336356295338874
53631.15478;8742.29865084791;2260.8980975324216;9029.919485136226;8742.29865084791;2260.8980975324216;14.499913621666716
54754.812765;9111.652612215043;1731.7299931511955;9274.756174415834;9111.652612215043;1731.7299931511955;10.76109868870754
55902.013172;9343.718211706193;1155.404182271266;9414.883368591452;9343.718211706193;1155.404182271266;7.049167095864401
57073.249251;9452.37770869107;513.9961349876181;9466.342291220091;9452.37770869107;513.9961349876181;3.1125326072015063
58269.024589;9522.13342311309;-120.11443554325962;9522.890968880894;9522.13342311309;-120.11443554325962;-0.722704138113425
59489.853323;9678.520863556581;-789.6720675386449;9710.682163501739;9678.520863556581;-789.6720675386449;-4.664439817132901
60736.260359;9263.670569154614;-1604.2853532007784;9401.559652968006;9263.670569154614;-1604.2853532007784;-9.825051961773156
62008.781606;9073.468202374559;-1989.8266794169942;9289.092282544183;9073.468202374559;-1989.8266794169942;-12.369248424300286
63307.964196;8779.122349759242;-2506.7822282650063;9130.00253953894;8779.122349759242;-2506.7822282650063;-15.936112795596012
64634.366728;8400.836477552306;-2999.593540744333;8920.292312040483;8400.836477552306;-2999.593540744333;-19.649558375703723
65988.559502;8031.347368362877;-3375.4903408720666;8711.858331758496;8031.347368362877;-3375.4903408720666;-22.79650036489388
67371.124768;7592.708521480762;-3648.899921797757;8423.995093271496;7592.708521480762;-3648.899921797757;-25.667984301077638
68782.656976;7193.484901156429;-3884.9623921186326;8175.521867828477;7193.484901156429;-3884.9623921186326;-28.37200960705016
70223.763028;6819.304135385616;-4046.133747383404;7929.319465919017;6819.304135385616;-4046.133747383404;-30.682151247857274
71695.062543;6496.937086725907;-4186.655808022762;7729.054170060218;6496.937086725907;-4186.655808022762;-32.797916127928055
73197.188124;6163.7911098785735;-4283.507691504193;7506.048160609797;6163.7911098785735;-4283.507691504193;-34.79725002187224
74730.785624;5882.670800077151;-4370.935946138147;7328.771847132569;5882.670800077151;-4370.935946138147;-36.61304888305433
76296.514431;5560.335328506441;-4426.224144271027;7106.9535766574845;5560.335328506441;-4426.224144271027;-38.52103352377251
77895.047746;5295.185973869292;-4493.851732228249;6945.048443971641;5295.185973869292;-4493.851732228249;-40.32018105853359
79527.072877;5072.798018119506;-4549.249511286908;6813.879280452608;5072.798018119506;-4549.249511286908;-41.88553095405767
81193.291529;4793.63696100472;-4630.982429597369;6665.204691316698;4793.63696100472;-4630.982429597369;-44.01126054332412
82894.420112;4543.884970629226;-4679.43870358706;6522.579030332918;4543.884970629226;-4679.43870358706;-45.84200641227946
84631.190045;4281.7116437437135;-4709.677222166988;6365.06984542739;4281.7116437437135;-4709.677222166988;-47.72506614467516
86404.348069;4021.048244136513;-4740.999578522896;6216.5831439165695;4021.048244136513;-4740.999578522896;-49.697271185668725
88214.656574;3756.317259383201;-4750.963603517018;6056.531558167887;3756.317259383201;-4750.963603517018;-51.6685789815756
90062.893922;3505.0386948452833;-4720.407632929849;5879.417018156231;3505.0386948452833;-4720.407632929849;-53.405049304231454
91949.854781;3243.7119551856;-4701.993215266986;5712.303164629024;3243.7119551856;-4701.993215266986;-55.39980097200931
93876.350471;3015.222180419208;-4640.179345749702;5533.789764529739;3015.222180419208;-4640.179345749702;-56.98389675429652
95843.209309;2760.6559316454272;-4577.363798868715;5345.416777027112;2760.6559316454272;-4577.363798868715;-58.90538242809651
97851.276968;2569.119085876741;-4512.093719537126;5192.240615697862;2569.119085876741;-4512.093719537126;-60.34345696905069
99901.416839;2347.820475949873;-4412.268239050778;4998.036814652904;2347.820475949873;-4412.268239050778;-61.982025305576656
101994.510399;2159.7140922806643;-4326.227524711588;4835.349993120234;2159.7140922806643;-4326.227524711588;-63.47097983923556
104131.457599;1989.5427777411376;-4220.144882499137;4665.608566280028;1989.5427777411376;-4220.144882499137;-64.7589608280966
106313.177241;1828.666742400032;-4106.775873170733;4495.512220783877;1828.666742400032;-4106.775873170733;-65.99752791408876
108540.607379;1691.6334406652302;-3991.8015110284855;4335.447266548883;1691.6334406652302;-3991.8015110284855;-67.03388912945135
110814.705721;1563.2911848549948;-3881.2006032067407;4184.208103211132;1563.2911848549948;-3881.2006032067407;-68.06114062931613
113136.45004;1449.7947802496763;-3769.563192288874;4038.7512383778094;1449.7947802496763;-3769.563192288874;-68.96298175887875
115506.838595;1344.6933056971902;-3655.2269606746013;3894.7251790632567;1344.6933056971902;-3655.2269606746013;-69.80232437654423
117926.89056;1251.5416171243005;-3543.7200852216174;3758.232092593167;1251.5416171243005;-3543.7200852216174;-70.54822146606323
120397.646462;1165.0965657552695;-3433.1545984351474;3625.4655569031574;1165.0965657552695;-3433.1545984351474;-71.254525177518
122920.168629;1096.02428720396;-3330.687422860055;3506.3867366477275;1096.02428720396;-3330.687422860055;-71.78525350608636
125495.541648;1023.8279919445629;-3229.6744277111366;3388.0703455064936;1023.8279919445629;-3229.6744277111366;-72.41104318592926
128124.872827;968.9189662428167;-3129.073286129338;3275.653155191084;968.9189662428167;-3129.073286129338;-72.79483718033117
130809.292676;909.5639666613024;-3038.2320642132913;3171.4603395695176;909.5639666613024;-3038.2320642132913;-73.33373145322149
133549.95539;867.2750717347352;-2945.505532115362;3070.5323463163013;867.2750717347352;-2945.505532115362;-73.59345461608319
136348.039347;821.6154784512137;-2855.228556282369;2971.0910627311505;821.6154784512137;-2855.228556282369;-73.94639240394781
139204.747612;785.9775804934194;-2774.3481154274655;2883.533981525832;785.9775804934194;-2774.3481154274655;-74.18248301327358
142121.308459;755.3896859067748;-2695.212865827327;2799.06876830411;755.3896859067748;-2695.212865827327;-74.34336252044533
145098.975893;722.3995412040322;-2619.303903543713;2717.096618865646;722.3995412040322;-2619.303903543713;-74.58123450561338
148139.030196;695.9554309198165;-2548.77024879511;2642.0794354011905;695.9554309198165;-2548.77024879511;-74.72738502923161
151242.778471;673.9171160439287;-2480.193185445732;2570.1211092920144;673.9171160439287;-2480.193185445732;-74.79863301995964
154411.555209;650.9347522809643;-2416.4399077724674;2502.578246449547;650.9347522809643;-2416.4399077724674;-74.92366861130259
157646.722859;632.0713205448055;-2355.8753973831454;2439.193112947486;632.0713205448055;-2355.8753973831454;-74.98147625757186
160949.672416;617.7662479865354;-2300.4903172086943;2381.9930387644545;617.7662479865354;-2300.4903172086943;-74.96859387281319
164321.824019;600.9037656653501;-2244.8046381251943;2323.840183605401;600.9037656653501;-2244.8046381251943;-75.01404697495997
167764.627562;585.1299708211417;-2196.5852848199033;2273.183669710938;585.1299708211417;-2196.5852848199033;-75.08383100539386
171279.563313;568.4694409448026;-2151.191419334248;2225.035286889939;568.4694409448026;-2151.191419334248;-75.19750661385626
174868.142559;553.5794160402403;-2105.3841960995055;2176.9457464643015;553.5794160402403;-2105.3841960995055;-75.26837595167945
178531.908247;536.484233821128;-2064.0126893914007;2132.595534813708;536.484233821128;-2064.0126893914007;-75.42991985055856
182272.435653;520.1463665223667;-2025.431980997476;2091.1544544231497;520.1463665223667;-2025.431980997476;-75.59724471435743
186091.333056;501.30225231181925;-1986.8086020353223;2049.0759793854536;501.30225231181925;-1986.8086020353223;-75.8389699506808
189990.242434;483.8789305216483;-1951.0286353615754;2010.1371981543014;483.8789305216483;-1951.0286353615754;-76.07099882463233
193970.840164;462.01374066722065;-1915.5095459093116;1970.4399298215144;462.01374066722065;-1915.5095459093116;-76.43947654867883
198034.837746;443.80552651312144;-1874.7931824263649;1926.6065561592916;443.80552651312144;-1874.7931824263649;-76.68196366358565
202183.982541;425.9746590209336;-1839.9592780510777;1888.6250435208794;425.9746590209336;-1839.9592780510777;-76.9649247257367
206420.058519;408.14361067714617;-1804.7509788630719;1850.3262692411286;408.14361067714617;-1804.7509788630719;-77.25694164757626
210744.887025;386.5656203276535;-1767.2336803822898;1809.018479700204;386.5656203276535;-1767.2336803822898;-77.66143089303314
215160.327566;372.2661186924516;-1730.1155955089598;1769.712416453494;372.2661186924516;-1730.1155955089598;-77.8569005564543
219668.278608;353.49230564105005;-1693.661823534498;1730.1581380456603;353.49230564105005;-1693.661823534498;-78.21076485652142
224270.678394;336.39949139203407;-1658.3013536357475;1692.0780115819048;336.39949139203407;-1658.3013536357475;-78.53270799321525
228969.505775;320.6418492074867;-1622.285034560865;1653.668627271904;320.6418492074867;-1622.285034560865;-78.81968702566478
233766.781062;306.9392582170517;-1586.8563089045374;1616.2687441588935;306.9392582170517;-1586.8563089045374;-79.05269692852602
238664.566896;292.8970531353731;-1551.8072945522135;1579.2069412084174;292.8970531353731;-1551.8072945522135;-79.31140742750554
243664.969133;279.7421312404148;-1518.2303858485332;1543.787279551401;279.7421312404148;-1518.2303858485332;-79.56003855476004
248770.137748;268.0281662986905;-1484.466169448386;1508.4690603940812;268.0281662986905;-1484.466169448386;-79.76521396822754
253982.267765;257.1880145271349;-1450.8942236333048;1473.512715584396;257.1880145271349;-1450.8942236333048;-79.94806628794765
