Frequency (Hz);Trace 1: Impedance: Real (Ω);Trace 1: Impedance: Imaginary (Ω);Trace 1: Impedance: Magnitude (Ω);Trace 2: Impedance: Real (Ω);Trace 2: Impedance: Imaginary (Ω);Trace 2: Impedance: Phase (°)
10000;432.67552144213346;801.9511733712496;911.2265312899674;432.67552144213346;801.9511733712496;61.651873285380674
10209.515903;439.4249286668429;813.554640540926;924.6434021175597;439.4249286668429;813.554640540926;61.62520567994424
10423.421498;446.166431760396;825.5374900930408;938.3904477236122;446.166431760396;825.5374900930408;61.61074311841094
10641.808756;453.01055095683415;837.8741248797705;952.4975634726084;453.01055095683415;837.8741248797705;61.60139154231848
10864.771573;460.1561240203006;850.2583015420034;966.7899657187588;460.1561240203006;850.2583015420034;61.57793925888323
11092.405816;467.4902630146048;863.0824926623935;981.5592367013795;467.4902630146048;863.0824926623935;61.55772598216265
11324.809359;474.89960241646514;875.9416182267855;996.3951780880295;474.89960241646514;875.9416182267855;61.53526773853116
11562.082126;482.6169037384986;889.0276141457259;1011.5775672126073;482.6169037384986;889.0276141457259;61.504266145835835
11804.326134;490.18263062022305;902.9125480591264;1027.3899361023477;490.18263062022305;902.9125480591264;61.50288589388493
12051.645539;498.4169840129376;916.3986186569031;1043.1710877074925;498.4169840129376;916.3986186569031;61.45882047893806
12304.14668;506.62014181403686;930.5319387490279;1059.5063270805415;506.62014181403686;930.5319387490279;61.434296315999056
12561.938121;515.0627519812856;944.8524078965673;1076.1206768696886;515.0627519812856;944.8524078965673;61.404090497119796
12825.130702;523.4364937379025;959.6996153825548;1093.1647244317999;523.4364937379025;959.6996153825548;61.39119789199747
13093.837587;532.1658756054883;974.6013537990793;1110.427088099869;532.1658756054883;974.6013537990793;61.36394096091035
13368.174308;541.2348338874007;989.9332711988418;1128.2300416313872;541.2348338874007;989.9332711988418;61.332865204759436
13648.25882;550.4686576699451;1005.6668001639284;1146.4647644079191;550.4686576699451;1005.6668001639284;61.30516536062776
13934.211547;559.9524038923504;1021.6261206284441;1165.0178646592274;559.9524038923504;1021.6261206284441;61.27289020574596
14226.15544;569.8294602062108;1037.7917576112877;1183.9414452939923;569.8294602062108;1037.7917576112877;61.22974445271934
14524.216021;579.716633547986;1054.5134823969688;1203.3578269863008;579.716633547986;1054.5134823969688;61.200294536714786
14828.521445;590.1453677251527;1071.5731534677361;1223.331753156209;590.1453677251527;1071.5731534677361;61.157190898727016
15139.202552;600.9157922380351;1088.8868378239074;1243.6938268509714;600.9157922380351;1088.8868378239074;61.10734185048144
15456.392922;611.7273571950057;1106.7457461216845;1264.5538763133939;611.7273571950057;1106.7457461216845;61.06942182220717
15780.228934;623.320974110834;1124.6902859418465;1285.868296544569;623.320974110834;1124.6902859418465;61.004093217641014
16110.849827;634.7377598266505;1143.30917864137;1307.6879986125737;634.7377598266505;1143.30917864137;60.962018690072306
16448.397752;647.0022220943332;1162.232514149541;1330.186562983316;647.0022220943332;1162.232514149541;60.89578836020411
16793.017844;659.3814223737297;1181.865324662753;1353.3622965827728;659.3814223737297;1181.865324662753;60.84215864176456
17144.858275;672.2294060649813;1201.772058975233;1377.007064655824;672.2294060649813;1201.772058975233;60.77887171751485
17504.070322;685.5826539021834;1221.9246253392573;1401.1150435785228;685.5826539021834;1221.9246253392573;60.7046169335862
17870.808433;699.3943476431721;1242.9287821387477;1426.192277003395;699.3943476431721;1242.9287821387477;60.63360107491093
18245.23029;713.1134875493996;1264.0138031262397;1451.2965722479084;713.1134875493996;1264.0138031262397;60.56979069796799
18627.496881;727.7611432457205;1285.473621533464;1477.1860794350446;727.7611432457205;1285.473621533464;60.48395923449755
19017.772565;743.0217067380918;1308.176868019017;1504.4626863781075;743.0217067380918;1308.176868019017;60.40417846797352
19416.225145;758.9700414198547;1330.6648102527445;1531.8956756312841;758.9700414198547;1330.6648102527445;60.30090207823326
19823.02594;775.1605658829293;1354.4786069956417;1560.60443409238;775.1605658829293;1354.4786069956417;60.217734200023294
20238.349859;792.4248122505602;1378.1675749193746;1589.7430445293621;792.4248122505602;1378.1675749193746;60.101771263034884
20662.375475;809.8501098032772;1402.449889588551;1619.482291707853;809.8501098032772;1402.449889588551;59.995548479539885
21095.285101;828.3822547218981;1427.4185109373866;1650.3759466572583;828.3822547218981;1427.4185109373866;59.87186637543272
21537.264873;847.5617545191002;1453.4390369526093;1682.5118014032544;847.5617545191002;1453.4390369526093;59.751730869756045
21988.504824;867.2390378338828;1479.6987565816753;1715.112812316553;867.2390378338828;1479.6987565816753;59.625789989755475
22449.198969;888.3308051067651;1506.1515378271583;1748.6063233903585;888.3308051067651;1506.1515378271583;59.4678219477569
22919.54539;909.958756447252;1534.589859190454;1784.093880479726;909.958756447252;1534.589859190454;59.333523999787566
23399.746316;932.4149491349158;1563.7042351134794;1820.5956641391024;932.4149491349158;1563.7042351134794;59.19296775719882
23890.008215;955.8526025792199;1592.6420323577422;1857.4613969313245;955.8526025792199;1592.6420323577422;59.029171057729776
24390.541881;980.53948628855;1622.4879575796347;1895.764979279327;980.53948628855;1622.4879575796347;58.85362027836709
24901.562522;1006.2519751775612;1653.3614115751243;1935.496575774401;1006.2519751775612;1653.3614115751243;58.67489598522333
25423.289859;1033.5268879991336;1684.6263924956627;1976.3966986691019;1033.5268879991336;1684.6263924956627;58.47067185417461
25955.948214;1062.1320273384301;1717.0078645271535;2018.9701459769383;1062.1320273384301;1717.0078645271535;58.25928303682753
26499.766608;1092.4572375659357;1750.3420738868228;2063.2886835168315;1092.4572375659357;1750.3420738868228;58.03009352989182
27054.978862;1123.0751311333283;1784.3338221610957;2108.35123712302;1123.0751311333283;1784.3338221610957;57.813334034469065
27621.823696;1156.6032433435732;1819.792444914935;2156.2410823194955;1156.6032433435732;1819.792444914935;57.56123497255273
28200.544831;1191.2823694870433;1855.9766449525457;2205.4031355876805;1191.2823694870433;1855.9766449525457;57.30510395720434
28791.391094;1228.7000264814676;1891.8713307859487;2255.85480191553;1228.7000264814676;1891.8713307859487;56.99777575781174
29394.616526;1267.501053368798;1930.7338758768628;2309.608672426891;1267.501053368798;1930.7338758768628;56.71563478260891
30010.48049;1318.4246933891866;1966.2029995878158;2367.318716972114;1318.4246933891866;1966.2029995878158;56.15642678841594
30639.247783;1364.9164572105205;2000.5207119201327;2421.792735554707;1364.9164572105205;2000.5207119201327;55.695040608730025
31281.188751;1410.1559480100216;2042.179756171401;2481.7409119858435;1410.1559480100216;2042.179756171401;55.37433552164492
31936.579403;1460.077354234015;2085.634890351057;2545.9180615637783;1460.077354234015;2085.634890351057;55.00552898203949
32605.701532;1514.5917494207563;2126.157188585196;2610.465965682359;1514.5917494207563;2126.157188585196;54.535405470394586
33288.842834;1572.3564377709376;2169.6875803069574;2679.5240180931337;1572.3564377709376;2169.6875803069574;54.069436072061414
33986.297032;1633.4546567891134;2213.449444353507;2750.914858459798;1633.4546567891134;2213.449444353507;53.57386480258989
34698.364005;1694.71489797953;2256.6861811016884;2822.178432595836;1694.71489797953;2256.6861811016884;53.09436662832893
35425.349913;1766.7632999763855;2306.376244184798;2905.3096113638944;1766.7632999763855;2306.376244184798;52.54664686867795
36167.567333;1846.601427425416;2344.18980419292;2984.151918024889;1846.601427425416;2344.18980419292;51.77124210239459
36925.335387;1921.4158930045307;2394.482311945422;3070.07892017614;1921.4158930045307;2394.482311945422;51.25523006047395
37698.979888;2005.3880304774887;2439.8684700354756;3158.2494049481957;2005.3880304774887;2439.8684700354756;50.58237191039937
38488.833471;2094.367220166636;2489.5902597841728;3253.372667635964;2094.367220166636;2489.5902597841728;49.92778353921108
39295.235743;2180.418211741892;2541.8892558997013;3348.9437987750775;2180.418211741892;2541.8892558997013;49.377194300548645
40118.533425;2305.3407520158385;2577.556861264165;3458.0912879730236;2305.3407520158385;2577.556861264165;48.19087301706811
40959.080503;2411.0529028535834;2627.9189532936366;3566.3895083737857;2411.0529028535834;2627.9189532936366;47.46436109751735
41817.238378;2539.711008094034;2664.991668561973;3681.346574032217;2539.711008094034;2664.991668561973;46.378881314254784
42693.376026;2674.5785830372943;2701.2321604175186;3801.3189528525063;2674.5785830372943;2701.2321604175186;45.28407342675199
43587.870151;2824.8186440878953;2736.764843771657;3933.126260634291;2824.8186440878953;2736.764843771657;44.09294004973124
44501.105351;2988.20202773363;2754.728860292094;4064.219783953318;2988.20202773363;2754.728860292094;42.67197880949598
45433.47428;3158.969164867306;2776.645268798345;4205.810877027482;3158.969164867306;2776.645268798345;41.314564136876456
46385.377822;3341.5987744351964;2796.8139204853783;4357.5739207875295;3341.5987744351964;2796.8139204853783;39.92828086535766
47357.225256;3541.6425578591948;2789.0714994207974;4508.009742283261;3541.6425578591948;2789.0714994207974;38.22071149338972
48349.43444;3764.784381510817;2775.5757798319646;4677.33068628439;3764.784381510817;2775.5757798319646;36.39938228931378
49362.431984;3990.9213869810196;2717.207971463456;4828.112744877346;3990.9213869810196;2717.207971463456;34.24888488048906
50396.653437;4225.964107799353;2664.0634220211005;4995.5987185680915;4225.964107799353;2664.0634220211005;32.22748314141355
51452.543475;4467.252513961322;2569.3034838383774;5153.412987094841;4467.252513961322;2569.3034838383774;29.905005652994618
52530.556088;4729.7872742962245;2452.9583090431547;5328.02891564961;4729.7872742962245;2452.9583090431547;27.412119800049414
53631.15478;4999.6327574912975;2279.4935248775832;5494.762819243326;4999.6327574912975;2279.4935248775832;24.509769425725562
54754.812765;5251.8507437404605;2057.108596126768;5640.357436438392;5251.8507437404605;2057.108596126768;21.389887642019367
55902.013172;5489.977214586319;1836.5210750045142;5789.01196022367;5489.977214586319;1836.5210750045142;18.496249355801584
57073.249251;5675.260310227674;1530.873887530469;5878.1080670882675;5675.260310227674;1530.873887530469;15.095964037873012
58269.024589;5852.9097127897085;1208.4636622107007;5976.3648256236675;5852.9097127897085;1208.4636622107007;11.666056556895779
59489.853323;6060.919246399886;877.9477511456038;6124.176219306739;6060.919246399886;877.9477511456038;8.242188156050824
60736.260359;6064.592305667673;360.3166671918057;6075.286654522546;6064.592305667673;360.3166671918057;3.400127044352693
62008.781606;6047.707962142847;62.65876329960527;6048.032549183596;6047.707962142847;62.65876329960527;0.5936057524804831
63307.964196;6014.03694272983;-333.2114511035641;6023.260763047346;6014.03694272983;-333.2114511035641;-3.171265860202115
64634.366728;5874.588552817359;-716.5570049428649;5918.128471588416;5874.588552817359;-716.5570049428649;-6.954339096334157
65988.559502;5714.175657630174;-1045.0298660116846;5808.949205072258;5714.175657630174;-1045.0298660116846;-10.36393418195212
67371.124768;5510.355128613436;-1319.1649761427157;5666.0577015874105;5510.355128613436;-1319.1649761427157;-13.463085599274168
68782.656976;5270.767808648787;-1553.4358502942512;5494.920948809706;5270.767808648787;-1553.4358502942512;-16.421651317941404
70223.763028;5030.323914884242;-1724.8900002661167;5317.838301572771;5030.323914884242;-1724.8900002661167;-18.926759383369653
71695.062543;4795.242873098407;-1862.9603894453824;5144.412077647314;4795.242873098407;-1862.9603894453824;-21.2312369467758
73197.188124;4551.427590255244;-1954.602568492633;4953.3790799912185;4551.427590255244;-1954.602568492633;-23.241019145685375
74730.785624;4349.790946652136;-2003.0171751958385;4788.816041957178;4349.790946652136;-2003.0171751958385;-24.725401453860034
76296.514431;4159.192594830365;-2038.3465677583479;4631.818192803338;4159.192594830365;-2038.3465677583479;-26.108655185929194
77895.047746;3981.205187949702;-2043.119508211796;4474.855536594811;3981.205187949702;-2043.119508211796;-27.166495988365057
79527.072877;3849.470980151733;-2053.7859022340613;4363.079572875759;3849.470980151733;-2053.7859022340613;-28.0810000695873
81193.291529;3714.181773118479;-2063.293696922269;4248.8030224434615;3714.181773118479;-2063.293696922269;-29.052946432172913
82894.420112;3610.8712967601136;-2049.2624509448515;4151.851167204643;3610.8712967601136;-2049.2624509448515;-29.576026569307242
84631.190045;3525.1842680852787;-2044.378706154674;4075.0961237907754;3525.1842680852787;-2044.378706154674;-30.110958081778193
86404.348069;3446.0674198464644;-2042.9707165567472;4006.1340480362937;3446.0674198464644;-2042.9707165567472;-30.66120858525143
88214.656574;3374.8075636590183;-2050.9754946268126;3949.155171842431;3374.8075636590183;-2050.9754946268126;-31.2883511408923
90062.893922;3316.3664226749956;-2055.278302201758;3901.5964872020645;3316.3664226749956;-2055.278302201758;-31.78806833218221
91949.854781;3258.7474534099724;-2080.369278564788;3866.1830401963844;3258.7474534099724;-2080.369278564788;-32.55397231856777
93876.350471;3213.8531221002477;-2095.3601488786467;3836.5852061360833;3213.8531221002477;-2095.3601488786467;-33.10344860790242
95843.209309;3160.9469758549885;-2127.8947517246143;3810.449036345186;3160.9469758549885;-2127.8947517246143;-33.94775694779743
97851.276968;3128.8241580069343;-2170.5551015771957;3807.99816973572;3128.8241580069343;-2170.5551015771957;-34.75015515681361
99901.416839;3074.090885109245;-2219.7404880545737;3791.7387310072536;3074.090885109245;-2219.7404880545737;-35.83230877571643
101994.510399;3015.3541075056814;-2281.683059219057;3781.327541535991;3015.3541075056814;-2281.683059219057;-37.11436520915293
104131.457599;2956.3572500734213;-2336.9453397221137;3768.4694122296637;2956.3572500734213;-2336.9453397221137;-38.32571371845028
106313.177241;2889.883651277973;-2404.9491261059507;3759.681877111611;2889.883651277973;-2404.9491261059507;-39.76708616876408
108540.607379;2810.015269885867;-2472.3228792488353;3742.801923191901;2810.015269885867;-2472.3228792488353;-41.342139667064046
110814.705721;2719.2590288756314;-2538.9830266414724;3720.3231681797665;2719.2590288756314;-2538.9830266414724;-43.036414107415034
113136.45004;2626.9836545505927;-2600.2617811232262;3696.2689907048325;2626.9836545505927;-2600.2617811232262;-44.70710439175324
115506.838595;2509.798194722631;-2655.4037398742043;3653.8002134723906;2509.798194722631;-2655.4037398742043;-46.614723786438624
117926.89056;2393.001583471624;-2700.595487016251;3608.278337793558;2393.001583471624;-2700.595487016251;-48.455800632829636
120397.646462;2269.299252731779;-2736.9546967991814;3555.3677883982846;2269.299252731779;-2736.9546967991814;-50.33675483505942
122920.168629;2134.9664696122973;-2766.874477970147;3494.8070337589984;2134.9664696122973;-2766.874477970147;-52.34562352551469
125495.541648;2008.67435510429;-2781.3996994343;3430.882824123676;2008.67435510429;-2781.3996994343;-54.163894705538944
128124.872827;1876.725160364897;-2778.7566565592774;3353.145669952193;1876.725160364897;-2778.7566565592774;-55.96557500942866
130809.292676;1743.3528538784904;-2764.143854354008;3267.9918024207627;1743.3528538784904;-2764.143854354008;-57.76026125090432
133549.95539;1621.063081457262;-2743.1214296753737;3186.3083171607827;1621.063081457262;-2743.1214296753737;-59.418796331412416
136348.039347;1507.3840915276144;-2710.070272435768;3101.0784706180216;1507.3840915276144;-2710.070272435768;-60.91649375175414
139204.747612;1393.1247888735268;-2667.008166343928;3008.941547574348;1393.1247888735268;-2667.008166343928;-62.41946332793304
142121.308459;1288.6722612339217;-2620.9903912292993;2920.6620529924485;1288.6722612339217;-2620.9903912292993;-63.817864103427084
145098.975893;1192.3588004364099;-2574.064307345366;2836.8162731004513;1192.3588004364099;-2574.064307345366;-65.14547092678404
148139.030196;1103.1007569072863;-2522.39638498595;2753.0555393743184;1103.1007569072863;-2522.39638498595;-66.37915774038224
151242.778471;1021.2842605811862;-2463.8800512629996;2667.1569972393117;1021.2842605811862;-2463.8800512629996;-67.48587452635132
154411.555209;944.2673555574162;-2406.117174477747;2584.7709175259947;944.2673555574162;-2406.117174477747;-68.57275015484177
157646.722859;874.4621384990263;-2344.4766527665247;2502.249948953065;874.4621384990263;-2344.4766527665247;-69.54507787498794
160949.672416;812.9562225251337;-2285.498625008898;2425.7785934952717;812.9562225251337;-2285.498625008898;-70.41943021987788
164321.824019;757.3423985310459;-2227.478363873064;2352.7063926753335;757.3423985310459;-2227.478363873064;-71.22197243077534
167764.627562;701.7231075145181;-2165.791622050513;2276.6353835790273;701.7231075145181;-2165.791622050513;-72.04751715024058
171279.563313;657.1899723722736;-2108.3745942065375;2208.425251006303;657.1899723722736;-2108.3745942065375;-72.68750543942306
174868.142559;613.6395436982604;-2052.1944841223713;2141.9747174634194;613.6395436982604;-2052.1944841223713;-73.35247936417144
178531.908247;574.9329091095994;-1995.6566157285195;2076.822856643829;574.9329091095994;-1995.6566157285195;-73.92872670934686
182272.435653;537.9953971997107;-1941.447104852742;2014.6106096090055;537.9953971997107;-1941.447104852742;-74.51138808390509
186091.333056;505.7183906792832;-1889.1645456175227;1955.6824310428076;505.7183906792832;-1889.1645456175227;-75.01363220421398
189990.242434;477.73058877539336;-1837.5865257785183;1898.6707864120228;477.73058877539336;-1837.5865257785183;-75.4270077552979
193970.840164;448.55115176079494;-1788.6042651673013;1843.9911477880248;448.55115176079494;-1788.6042651673013;-75.92155250249989
198034.837746;424.0527017388072;-1737.3733257236597;1788.3754546481764;424.0527017388072;-1737.3733257236597;-76.28360455352664
202183.982541;404.48575008577967;-1691.1992597718515;1738.8972535130745;404.48575008577967;-1691.1992597718515;-76.54918865171128
206420.058519;385.6842864686306;-1647.1218769718384;1691.6745687123305;385.6842864686306;-1647.1218769718384;-76.82125734583347
210744.887025;365.54869769276723;-1602.7858558014473;1643.9429278238513;365.54869769276723;-1602.7858558014473;-77.15225958553194
215160.327566;350.67734334070883;-1559.9452459954155;1598.8757830538914;350.67734334070883;-1559.9452459954155;-77.33046620528685
219668.278608;335.43994189382573;-1520.6499580621337;1557.2078376286518;335.43994189382573;-1520.6499580621337;-77.56034991118426
224270.678394;321.97555304062263;-1482.682533581479;1517.2395170649256;321.97555304062263;-1482.682533581479;-77.74802130676575
228969.505775;309.9254613170648;-1446.1302331955987;1478.9680331011052;309.9254613170648;-1446.1302331955987;-77.90371212362551
233766.781062;298.8881031190124;-1410.5098503602733;1441.8294407278004;298.8881031190124;-1410.5098503602733;-78.03595544759601
238664.566896;287.9141290548202;-1376.8971148365179;1406.677010032695;287.9141290548202;-1376.8971148365179;-78.189420944849
243664.969133;278.2905080869175;-1345.3955036407401;1373.8757833617985;278.2905080869175;-1345.3955036407401;-78.3133744724348
248770.137748;268.76393586303607;-1314.8383655985263;1342.0260730963441;268.76393586303607;-1314.8383655985263;-78.44740966145854
253982.267765;259.6807659030173;-1285.9419767605175;1311.8997171181663;259.6807659030173;-1285.9419767605175;-78.58332974085867
